0,1,2,3,4,5,6,7,8,9,10,11,12,13,14,15,16,17,18,19,20,21,22,23,24,25,26,27,28,29,30,31,32,33,34,35,36,37,38,39,40,41,42,43,44,45,46,47,48,49,50,51,52,filename
5,12,10,12,0,16,5,0,15,5,0,0,17,0,0,0,0,6,0,9,6,0,3,0,3,10,17,14,0,5,6,0,8,7,0,21,7,12,0,6,0,9,8,9,0,0,6,5,10,14,0,0,5,2.txt
5,16,10,12,0,6,5,6,18,13,0,5,5,4,9,4,9,0,0,9,6,0,0,0,4,10,26,7,12,0,6,6,8,6,6,25,9,9,18,0,10,9,9,9,0,6,6,7,5,21,16,11,5,5.txt
5,12,5,14,0,7,8,0,0,9,0,0,26,12,0,0,0,15,6,4,6,4,3,0,5,11,0,0,0,5,0,9,0,7,0,7,10,0,0,6,0,0,9,11,0,0,7,5,14,0,0,6,0,9.txt
5,12,10,12,0,16,5,0,15,0,10,0,5,5,0,4,0,0,0,0,6,7,3,0,4,10,29,9,9,4,6,0,8,8,17,26,8,12,17,7,8,9,11,9,0,0,6,6,12,19,6,7,0,12.txt
5,12,10,12,0,16,5,0,4,5,0,0,5,5,0,4,0,0,0,10,6,0,3,0,3,10,17,0,0,5,6,0,8,7,0,20,7,8,0,6,11,9,9,9,0,0,6,6,0,14,0,6,0,14.txt
5,12,10,12,0,16,5,6,15,0,4,5,5,5,0,4,0,0,0,0,9,5,3,10,4,10,30,9,4,4,6,6,8,8,8,26,8,14,17,5,7,9,7,9,0,0,6,7,11,15,14,7,6,16.txt
5,12,10,12,0,16,5,0,15,5,4,0,5,5,0,4,0,0,0,10,6,7,3,0,3,10,27,9,4,5,6,0,8,10,23,26,8,12,0,6,7,9,11,9,0,0,6,6,0,21,0,0,0,17.txt
5,12,10,12,0,16,5,0,15,0,0,0,5,5,0,4,0,0,0,0,7,0,3,8,3,10,29,0,5,5,6,6,8,8,23,26,8,14,0,6,8,9,11,9,0,0,6,7,5,14,0,6,6,21.txt
5,12,10,12,0,16,5,6,15,0,4,7,5,5,0,4,0,0,0,0,6,0,3,0,3,10,29,13,4,5,6,0,8,8,17,26,8,12,17,7,7,9,11,9,0,0,6,6,18,14,0,7,0,23.txt
5,12,10,11,0,16,5,5,15,0,0,0,5,5,0,4,0,0,0,0,0,7,3,0,3,9,17,14,6,5,6,6,8,7,6,20,7,12,0,6,7,9,9,9,0,0,6,5,10,14,10,6,0,24.txt
5,12,10,11,0,17,5,0,4,5,0,0,5,5,0,0,0,6,0,10,6,0,3,0,3,9,13,0,0,5,6,0,8,7,0,14,7,8,0,6,0,9,9,9,0,0,6,5,10,8,0,0,0,26.txt
5,12,10,12,0,16,5,6,4,0,0,0,5,5,0,4,0,0,0,9,7,7,3,4,4,10,26,0,0,5,6,6,8,0,6,26,8,8,11,6,9,9,10,9,0,0,6,7,5,14,19,0,5,28.txt
5,12,8,8,0,13,4,0,15,5,0,0,7,5,0,4,0,6,0,0,6,0,3,5,4,9,8,12,0,5,0,6,8,7,0,7,7,14,0,6,0,11,9,9,0,0,6,5,6,8,0,0,0,30.txt
5,16,10,12,0,16,5,21,12,5,14,8,5,5,9,2,5,17,3,14,4,9,5,2,1,15,3,30,2,10,7,3,14,5,28,4,6,6,6,4,28,6,10,9,0,5,6,6,9,21,20,7,0,32.txt
5,12,10,11,0,13,4,6,15,0,4,5,5,5,0,4,0,6,0,0,9,0,3,4,3,9,12,12,6,5,6,0,8,7,8,12,7,14,8,6,21,10,9,9,0,0,6,5,4,8,16,6,8,34.txt
5,12,10,12,0,16,5,6,15,0,9,7,10,0,0,8,0,8,0,10,6,3,3,0,3,10,29,12,9,4,6,0,8,8,21,26,8,15,21,7,8,9,13,9,0,0,6,11,18,14,0,7,0,36.txt
5,12,10,12,0,16,5,0,4,0,0,0,5,5,0,4,0,0,0,0,6,0,3,0,3,10,26,0,0,5,6,0,8,17,6,26,8,8,0,6,9,9,10,9,0,0,6,6,0,14,0,6,0,40.txt
5,12,10,11,0,16,5,21,19,5,0,8,5,5,0,0,0,6,0,10,0,0,3,0,4,10,17,9,0,5,6,0,8,7,14,20,7,23,0,6,19,9,9,9,8,0,6,5,10,21,0,12,0,41.txt
5,12,10,12,0,16,5,6,4,5,9,5,5,5,0,4,0,0,0,11,7,0,3,4,3,10,29,0,9,5,6,0,8,0,8,26,8,8,17,6,8,9,11,9,0,0,6,6,7,14,0,7,6,49.txt
5,12,10,11,0,17,4,7,15,0,0,0,5,5,0,4,0,6,0,0,6,0,3,0,3,9,13,0,0,5,6,0,8,7,0,14,7,13,11,6,0,9,9,9,0,0,6,5,4,8,0,6,0,53.txt
5,12,10,11,0,17,5,0,4,5,0,0,5,5,0,4,0,8,0,10,0,0,3,0,3,9,13,0,6,5,6,0,8,7,15,14,7,8,0,6,21,9,9,9,0,0,6,5,10,8,0,12,0,55.txt
5,12,10,11,0,15,4,6,4,0,0,7,5,5,0,4,0,0,0,0,0,0,3,0,4,9,13,0,0,5,6,16,8,7,0,15,7,8,23,6,0,9,9,9,0,0,6,5,4,8,0,0,0,57.txt
5,12,10,12,0,16,5,0,4,0,0,0,5,5,0,4,0,0,0,10,0,0,3,0,3,10,29,0,9,5,6,0,8,20,0,26,8,8,0,8,8,9,10,9,0,0,6,6,0,14,0,7,0,60.txt
5,16,8,8,0,13,4,0,15,0,0,0,5,5,9,4,0,6,0,11,6,0,3,0,8,8,7,0,0,5,0,0,8,7,0,7,7,17,0,6,0,7,9,9,0,0,6,5,4,7,0,0,0,61.txt
5,12,10,12,0,16,5,6,4,5,0,7,5,5,0,4,0,0,10,0,7,0,3,4,3,10,17,0,4,5,6,0,8,7,6,20,7,8,23,6,7,9,9,9,0,0,6,6,8,14,0,13,8,63.txt
5,16,10,11,0,13,4,0,15,5,0,0,5,5,9,4,0,6,0,0,0,0,3,0,4,9,12,19,0,5,6,6,8,7,6,10,7,14,0,6,0,10,9,9,0,0,6,5,4,8,0,6,0,65.txt
5,16,8,8,0,13,4,6,15,5,0,5,5,5,9,4,9,0,0,11,0,0,0,0,3,9,10,0,0,0,6,6,8,8,6,7,7,14,8,0,0,11,9,9,0,0,6,5,4,8,0,0,0,68.txt
5,12,10,11,0,16,5,6,4,5,0,5,0,0,0,0,0,6,0,10,0,0,0,0,3,10,15,0,0,5,6,0,8,7,6,28,7,8,8,6,0,9,8,9,0,0,6,5,10,8,0,0,0,71.txt
5,12,10,12,0,16,5,6,12,5,9,5,5,5,0,4,0,0,0,10,9,7,3,10,3,10,30,11,9,4,6,0,8,8,17,26,8,23,17,5,8,9,12,9,0,0,6,2,1,14,21,7,6,72.txt
5,12,10,12,0,16,5,0,4,0,9,0,5,5,0,4,0,0,0,0,0,0,3,10,4,10,30,0,9,4,6,6,8,0,0,26,8,8,20,7,8,9,7,9,0,0,6,7,11,14,5,7,0,76.txt
5,12,10,11,0,13,4,0,4,0,0,0,5,5,0,0,0,6,0,9,6,0,0,0,3,9,10,0,0,5,6,0,8,7,0,12,7,20,12,6,0,10,9,9,0,0,6,5,4,8,0,0,5,78.txt
5,12,10,12,0,16,5,0,15,0,9,0,5,5,0,4,0,0,0,10,6,0,3,8,4,10,29,9,9,5,6,0,8,8,17,26,8,22,17,7,8,9,11,9,0,0,6,6,12,17,0,7,0,81.txt
5,12,10,11,0,17,4,0,4,0,0,0,5,5,0,4,0,6,0,0,6,0,3,0,3,9,13,0,0,5,6,6,8,7,0,14,7,8,0,6,0,9,9,9,0,0,6,5,4,8,0,0,0,84.txt
5,12,10,12,0,16,5,0,4,0,9,0,5,5,0,4,0,0,0,10,6,0,3,5,3,10,29,0,9,5,6,6,8,11,10,26,8,8,17,7,8,9,11,9,0,0,6,7,5,14,0,7,0,86.txt
6,8,8,7,0,11,4,0,15,5,0,0,7,5,0,4,0,16,0,10,6,0,3,0,5,4,5,15,0,5,0,6,6,7,6,7,10,0,0,6,0,11,9,11,0,0,5,5,13,0,0,0,0,89.txt
5,12,10,12,0,16,5,0,4,0,9,0,5,5,0,4,0,0,0,10,0,0,3,0,3,10,29,0,9,4,6,0,8,0,0,26,8,8,17,7,8,9,11,9,0,0,6,6,0,14,0,7,0,90.txt
5,12,10,12,0,16,5,0,4,5,9,0,5,5,0,4,0,0,0,0,0,0,3,0,3,10,29,0,9,5,6,6,8,0,17,26,8,8,17,7,8,9,11,9,0,0,6,7,5,14,0,7,0,92.txt
5,16,10,12,0,17,4,0,15,0,0,0,5,5,9,4,13,22,0,10,0,0,3,0,3,9,17,0,0,5,6,0,8,8,0,17,7,17,12,6,0,9,9,9,0,0,6,5,4,12,8,0,0,95.txt
9,23,4,21,4,5,3,4,3,4,0,17,4,3,5,0,0,8,0,0,6,3,3,0,4,10,17,9,8,5,6,6,8,7,6,21,7,10,12,6,18,9,9,9,0,0,6,12,10,21,16,13,0,97.txt
5,12,10,12,0,16,5,0,15,0,4,0,5,5,0,4,0,0,0,0,0,0,3,0,3,10,29,0,4,5,6,0,8,8,0,26,8,17,0,6,7,9,11,9,0,0,6,6,0,14,0,7,0,98.txt
5,12,10,12,0,16,5,0,15,0,9,0,5,5,0,4,0,0,0,10,0,0,3,0,3,10,29,0,9,5,6,0,8,8,17,26,8,18,17,7,8,9,11,9,0,0,6,6,0,14,0,7,0,100.txt
5,12,10,12,0,16,5,0,4,0,0,0,5,5,0,4,0,6,0,0,0,0,3,0,3,10,17,0,0,5,6,0,8,7,6,21,7,8,0,6,0,9,9,9,0,0,6,6,10,14,0,6,0,102.txt
5,12,10,12,0,16,5,0,4,0,0,0,5,5,0,4,0,10,0,0,6,0,3,8,3,10,21,0,0,5,6,0,8,7,8,26,8,19,0,6,0,9,10,9,0,0,6,6,0,14,0,6,8,105.txt
5,12,10,12,0,16,5,0,4,5,0,0,5,5,0,4,0,0,0,10,6,0,3,0,3,10,27,0,0,5,6,0,8,0,0,26,8,8,0,6,0,9,11,9,0,0,6,6,0,14,0,10,0,108.txt
5,12,10,12,0,16,5,0,15,0,4,0,5,5,0,4,0,0,0,11,6,0,3,0,3,10,29,0,4,4,6,0,8,8,10,26,8,14,17,7,7,9,11,9,0,0,6,6,0,14,5,7,0,110.txt
5,12,10,12,0,16,5,6,4,0,4,5,5,5,0,4,0,0,0,0,6,0,3,0,3,10,22,0,4,5,6,6,8,12,0,25,8,8,8,6,7,9,9,9,0,0,6,7,5,14,0,6,0,112.txt
5,12,10,11,0,16,5,0,15,0,0,0,12,0,0,0,0,6,0,0,9,0,3,4,4,10,17,9,0,5,6,6,8,7,8,21,7,12,0,6,0,9,9,9,0,0,6,5,10,16,0,0,8,114.txt
5,12,10,11,0,17,5,6,8,0,4,7,5,8,0,4,0,6,0,10,6,0,3,0,3,9,13,9,6,5,6,0,8,7,0,19,7,10,23,6,21,9,9,9,0,0,6,5,10,21,0,6,0,116.txt
6,8,10,12,0,16,5,0,15,5,0,0,5,5,0,4,0,0,0,11,6,0,3,8,3,10,27,0,0,5,6,6,8,25,9,26,8,8,0,6,10,9,10,9,0,0,6,7,5,14,0,0,6,118.txt
5,16,10,12,0,16,5,5,4,5,0,5,5,5,9,4,9,0,0,9,7,7,4,4,3,10,29,0,9,0,6,6,8,20,8,26,8,20,18,0,10,9,10,9,7,5,6,7,5,14,7,7,5,121.txt
6,8,8,8,0,13,4,0,15,5,0,0,29,18,0,0,0,6,0,11,0,0,3,0,3,9,7,0,0,5,0,0,8,7,6,7,10,20,0,6,0,7,9,11,0,0,6,5,6,8,0,0,0,123.txt
5,12,10,12,0,16,5,0,15,0,0,0,12,0,0,0,0,0,0,10,7,0,3,4,3,10,27,14,0,5,6,0,8,8,22,26,8,12,0,6,0,9,14,9,0,0,6,11,0,14,0,6,8,124.txt
5,12,10,12,0,16,5,6,4,0,0,7,5,5,0,4,0,0,0,13,9,0,3,4,3,10,26,0,0,5,6,0,8,0,8,26,8,8,11,6,13,9,10,9,0,0,6,6,0,14,0,0,6,126.txt
5,12,10,12,0,16,5,0,4,0,9,0,5,5,0,8,0,0,0,0,6,0,3,0,3,10,29,0,12,5,6,0,8,10,24,26,8,20,17,7,8,9,11,9,0,0,6,6,0,14,0,7,0,128.txt
5,12,10,12,0,16,5,0,4,0,0,0,5,5,0,4,0,0,0,0,7,7,3,4,3,10,29,0,12,5,6,6,8,0,8,26,8,8,0,6,8,9,11,9,0,0,6,7,5,14,0,7,6,130.txt
5,12,10,12,0,16,5,0,15,0,4,0,5,5,0,4,0,0,0,0,0,7,3,0,3,10,29,29,4,5,6,6,8,8,17,26,8,13,17,7,7,9,11,9,0,0,6,7,5,14,0,7,0,132.txt
5,12,10,11,0,17,5,0,4,0,0,0,5,5,0,4,0,0,0,11,6,0,3,0,3,9,13,0,0,5,6,6,8,7,0,17,7,8,15,6,20,9,9,9,0,0,6,5,10,8,0,0,0,135.txt
5,12,10,12,0,16,5,0,4,0,9,0,5,5,0,4,0,0,0,9,0,15,0,10,4,10,30,0,9,4,6,14,8,0,0,26,8,8,20,5,25,9,7,9,0,0,6,13,11,14,5,7,7,137.txt
5,12,10,12,0,16,5,0,15,0,0,0,5,5,0,4,0,0,0,0,6,0,3,0,4,10,26,29,0,5,6,6,8,8,0,26,8,12,0,6,17,9,9,9,0,0,6,7,5,14,16,11,0,141.txt
5,12,10,12,0,16,5,0,15,5,0,0,5,5,0,4,0,0,0,10,6,0,3,8,3,10,19,18,0,5,6,0,8,7,9,26,8,12,0,6,0,9,9,9,0,0,6,6,0,14,0,6,8,144.txt
5,16,10,11,0,21,4,0,15,0,4,0,5,5,9,4,0,0,0,10,6,0,3,0,3,9,15,0,4,5,6,6,8,7,6,16,7,14,15,6,7,9,9,9,0,0,6,5,4,12,0,0,0,145.txt
5,12,10,12,0,16,5,6,4,0,4,5,5,5,0,4,0,0,0,9,9,0,3,4,3,10,29,0,4,5,6,6,8,0,8,26,8,8,17,7,7,9,11,9,0,0,6,7,5,14,0,7,7,147.txt
5,12,10,12,0,16,5,0,15,0,0,0,12,0,0,0,0,0,0,12,9,0,3,4,3,10,17,0,0,5,6,0,8,7,19,21,7,14,0,6,0,9,9,9,0,0,6,9,10,14,0,6,5,149.txt
6,8,10,11,0,16,5,0,15,0,0,0,5,5,0,4,0,0,0,10,6,0,3,0,3,10,15,0,0,5,6,0,8,7,6,19,7,20,0,6,9,9,9,9,0,0,6,5,10,8,0,0,0,151.txt
5,12,10,12,0,16,5,0,4,0,0,0,5,5,0,4,0,0,0,13,6,0,3,0,3,10,27,0,9,5,6,6,8,8,6,26,8,19,0,6,16,9,10,9,0,0,6,8,5,14,0,15,0,154.txt
5,12,10,12,0,16,5,0,4,5,0,0,5,5,0,4,0,0,0,9,6,0,0,12,3,10,29,0,12,5,6,0,8,0,24,26,8,8,0,6,10,9,11,9,0,0,6,6,0,14,0,7,9,156.txt
5,12,10,11,0,18,4,0,15,5,0,0,5,5,0,4,0,6,0,9,7,0,3,8,4,9,13,0,0,5,6,6,8,7,8,13,7,16,0,6,0,9,9,9,0,0,6,5,4,8,0,0,5,158.txt
5,12,10,12,0,16,5,0,15,0,9,0,5,5,0,4,0,0,0,0,6,7,3,0,3,10,29,0,4,4,6,6,8,8,17,26,8,16,17,7,7,9,11,9,0,0,6,6,0,14,0,7,0,160.txt
5,12,10,12,0,16,5,0,4,0,0,0,22,0,0,0,0,0,0,10,6,0,3,0,3,10,26,0,0,5,6,6,8,7,0,26,8,18,0,6,24,9,10,9,0,0,6,12,5,14,0,6,0,161.txt
5,12,8,8,0,13,4,0,15,0,0,0,17,0,0,0,0,16,0,0,6,0,3,0,5,7,6,14,0,5,0,0,8,7,0,7,10,0,0,6,0,7,9,11,0,0,6,5,13,0,0,9,0,163.txt
5,12,10,12,0,16,5,0,4,5,0,0,5,5,0,4,0,0,0,13,6,0,3,0,3,10,27,0,12,5,6,6,8,0,0,26,8,8,0,6,10,9,10,9,0,0,6,7,5,14,0,6,0,165.txt
5,12,8,8,0,13,4,0,4,5,0,0,5,5,0,4,0,8,0,0,6,0,0,0,3,9,8,0,0,5,0,0,8,7,0,7,7,8,12,6,0,7,9,9,0,0,6,5,4,8,0,0,0,167.txt
5,12,8,9,0,13,4,0,4,0,0,0,5,5,0,14,0,0,0,10,0,0,3,0,3,9,10,0,0,5,6,0,8,7,0,9,7,8,0,6,0,10,9,9,0,0,6,5,4,8,0,0,0,169.txt
5,12,10,12,0,16,5,0,4,5,0,0,5,5,0,4,0,0,0,0,6,7,3,8,3,10,29,0,12,5,6,6,8,19,24,26,8,8,0,6,8,9,11,9,0,0,6,7,5,14,0,7,6,171.txt
5,12,10,10,0,13,4,0,15,0,0,0,5,5,0,4,0,6,0,0,0,0,0,0,3,9,10,0,0,5,6,6,8,7,0,10,7,14,0,6,0,10,9,9,0,0,6,5,4,8,0,0,0,173.txt
5,12,10,11,5,16,5,5,15,5,0,0,9,5,0,4,0,0,0,9,6,0,3,0,4,9,15,0,8,5,6,6,8,7,6,20,7,17,0,6,14,9,9,9,7,0,6,5,10,14,7,0,5,175.txt
6,18,10,12,0,16,5,0,15,5,0,0,5,5,0,4,0,0,0,0,6,0,3,8,3,10,27,0,8,5,6,6,8,8,9,26,8,18,0,6,14,9,10,9,0,0,6,7,5,14,0,0,6,177.txt
5,12,10,12,0,16,5,0,4,0,0,0,5,5,0,4,0,0,0,0,0,0,3,0,4,10,27,0,0,5,6,6,8,10,0,26,8,8,0,6,12,9,10,9,0,0,6,7,5,14,0,6,0,179.txt
5,12,10,12,0,16,5,6,4,5,9,5,5,5,0,4,0,0,0,0,6,0,3,0,4,10,29,0,9,4,6,6,8,0,10,26,8,8,17,7,8,9,11,9,0,0,6,7,5,14,0,7,0,182.txt
5,12,10,12,0,16,5,0,4,0,0,0,5,5,0,4,0,0,0,0,6,0,3,0,3,10,27,0,0,5,6,0,8,20,0,26,8,8,0,6,16,9,10,9,0,0,6,6,0,14,0,10,0,184.txt
5,12,10,12,0,16,5,0,4,5,0,0,5,5,0,4,0,0,0,10,0,0,3,0,3,10,17,0,0,5,6,0,8,7,0,21,7,8,0,6,0,9,9,9,0,0,6,6,10,14,0,0,0,188.txt
5,12,8,9,0,13,4,0,15,5,0,0,24,0,0,0,0,6,0,0,6,0,3,0,3,9,8,0,0,5,0,6,8,7,26,7,10,16,0,6,20,11,8,0,0,0,6,5,6,8,0,0,0,189.txt
5,12,10,12,0,16,5,6,15,0,0,0,5,5,0,4,0,0,0,0,6,0,0,0,3,10,23,9,0,5,6,0,8,7,6,26,8,12,11,6,30,9,10,9,0,0,6,6,0,14,13,0,0,191.txt
5,16,10,12,0,13,4,0,9,5,0,0,5,5,9,4,9,6,0,0,6,0,3,0,3,9,4,0,1,0,6,0,8,8,6,1,1,17,1,0,2,10,6,12,10,5,6,1,1,1,1,4,4,194.txt
5,12,10,12,0,16,5,6,4,0,9,5,5,5,0,4,0,0,0,0,8,7,3,8,3,10,29,0,9,4,6,0,8,0,17,26,8,8,17,7,8,9,11,9,0,0,6,6,7,14,0,7,6,197.txt
5,12,10,12,0,16,5,6,15,0,4,7,5,5,0,4,0,0,0,0,0,0,3,0,3,10,27,13,4,5,6,6,8,8,6,26,8,12,23,6,7,9,10,9,0,0,6,7,5,14,0,6,0,199.txt
5,12,10,12,0,16,5,6,4,5,9,5,18,0,0,8,0,6,0,0,6,0,3,0,3,10,29,0,0,5,6,0,8,19,0,26,8,8,8,6,8,9,14,9,0,0,6,12,7,14,0,6,0,203.txt
5,12,10,12,0,16,5,6,4,0,9,5,5,5,0,4,0,0,0,0,7,7,3,10,3,10,30,0,9,4,6,0,8,20,17,26,8,8,17,7,8,9,7,9,0,0,6,6,7,14,0,7,6,204.txt
6,8,10,11,0,13,4,0,15,5,0,0,13,0,0,0,0,6,0,0,7,0,3,8,3,9,10,13,0,5,6,0,8,7,8,10,7,12,0,6,0,10,9,9,0,0,6,5,6,8,13,0,8,209.txt
5,12,10,12,0,16,5,0,15,0,0,0,25,0,0,0,0,10,0,0,0,0,3,0,3,10,17,0,0,5,6,0,8,7,0,26,8,17,0,6,0,9,9,9,0,0,6,12,0,14,0,6,0,210.txt
5,12,10,12,0,16,5,0,4,5,0,0,5,5,0,4,0,0,0,10,6,0,3,0,3,10,26,0,8,5,6,0,8,0,0,26,8,8,0,6,9,9,10,9,0,0,6,6,0,14,0,10,0,212.txt
5,12,8,8,0,13,4,0,15,0,0,0,7,5,0,4,0,6,0,9,7,0,3,4,3,9,8,29,0,5,0,0,8,7,8,7,7,12,0,6,0,7,9,9,0,0,6,5,6,8,0,6,5,214.txt
5,16,10,12,5,16,5,5,15,0,17,0,19,17,9,10,10,17,9,3,4,17,5,2,14,22,3,30,1,2,4,4,15,5,29,1,2,6,6,4,26,1,6,12,10,5,6,1,1,2,4,1,1,217.txt
5,12,10,12,5,16,5,5,15,0,21,0,5,5,0,4,0,0,0,0,6,7,3,10,4,10,30,12,9,4,6,7,8,8,10,26,8,17,20,5,8,9,7,9,7,0,6,13,11,14,5,7,0,219.txt
5,12,10,12,0,16,5,0,4,5,9,0,5,5,0,4,0,0,0,0,6,15,3,0,3,10,29,0,9,5,6,0,8,0,0,26,8,8,17,7,8,9,11,9,0,0,6,6,0,14,0,7,0,220.txt
5,12,10,12,0,16,5,21,12,0,9,8,5,5,0,4,0,0,0,0,0,0,3,0,4,10,29,9,9,5,6,6,8,8,11,26,8,23,17,7,8,9,11,9,0,0,6,7,5,21,0,7,0,222.txt
5,12,10,12,0,16,5,0,4,0,9,0,5,5,0,4,0,0,0,0,0,5,3,0,3,10,29,0,9,4,6,6,8,19,17,26,8,8,17,7,8,9,11,9,0,0,6,7,5,14,0,7,0,225.txt
5,12,10,12,0,16,5,6,4,5,0,5,5,5,0,0,0,0,0,0,6,7,3,0,3,10,24,0,0,5,6,0,8,7,0,26,8,8,8,6,0,9,10,9,0,0,6,6,7,14,0,0,0,227.txt
5,12,10,12,0,16,5,0,4,0,0,0,5,5,0,4,0,0,0,0,0,0,3,0,3,10,27,0,0,5,6,0,8,8,0,26,8,19,0,6,8,9,11,9,0,0,6,6,0,14,0,6,0,229.txt
5,12,10,12,0,16,5,6,15,0,4,0,10,0,0,8,0,0,0,9,7,0,3,4,3,10,29,0,4,4,6,6,8,8,8,26,8,12,17,7,7,9,11,9,0,0,6,9,5,14,0,7,7,231.txt
5,16,10,12,0,16,5,0,4,0,0,0,5,5,9,4,0,6,0,0,0,0,3,0,3,10,17,0,0,5,6,0,8,8,0,20,8,20,0,6,0,9,9,9,0,0,6,6,0,14,0,6,0,236.txt
5,12,10,11,0,16,5,6,15,0,0,5,5,5,0,4,0,6,0,9,7,0,0,8,3,9,15,29,0,5,6,0,8,7,6,28,7,12,8,6,0,9,9,9,0,0,6,5,10,8,0,0,5,241.txt
5,12,10,12,0,16,5,6,4,0,4,7,5,5,0,4,0,0,0,10,8,5,3,10,3,10,30,0,4,4,6,8,8,8,8,26,8,8,17,5,7,9,7,9,0,0,6,8,11,14,5,7,6,242.txt
5,12,10,12,0,16,5,0,15,5,0,0,5,5,0,4,0,0,0,10,0,0,3,0,3,10,17,0,0,5,6,6,8,7,6,21,7,17,0,6,0,9,9,9,0,0,6,5,10,14,0,0,0,245.txt
5,12,10,11,0,16,5,21,10,0,0,8,5,8,0,4,0,0,0,0,6,0,3,0,3,10,17,9,0,5,6,6,8,7,0,20,7,23,13,6,0,9,9,10,0,0,6,5,10,21,0,0,0,247.txt
5,12,10,12,0,16,5,21,10,0,4,8,5,4,0,4,0,0,0,10,0,0,3,0,4,10,29,9,4,4,6,0,8,8,10,26,8,23,17,7,7,9,11,9,0,0,6,6,9,4,6,7,0,249.txt
5,12,10,12,5,16,5,5,15,0,15,5,5,8,0,4,0,0,0,9,6,0,4,8,3,10,29,9,9,5,6,0,8,8,17,26,8,22,17,7,10,9,11,9,7,0,6,6,7,17,7,7,7,250.txt
5,12,10,12,0,16,5,6,4,0,0,5,5,5,0,4,0,0,0,0,8,0,3,8,3,10,27,0,0,5,6,0,8,8,6,26,8,19,8,6,9,9,10,9,0,0,6,6,7,14,0,6,6,252.txt
5,16,10,12,0,16,5,0,15,0,0,0,5,5,9,4,8,0,0,11,0,0,3,0,3,10,17,16,0,5,6,6,8,8,10,20,8,12,0,6,0,9,9,9,0,0,6,7,5,14,0,0,0,256.txt
5,12,10,12,0,16,5,0,4,0,0,0,5,5,0,0,0,0,0,0,6,0,3,0,3,10,27,0,0,5,6,0,8,8,0,26,8,19,0,6,8,9,10,9,0,0,6,6,0,14,0,6,0,258.txt
5,12,10,12,0,16,5,0,4,0,0,0,5,5,0,4,0,0,0,0,6,0,3,0,3,10,29,0,9,5,6,0,8,0,0,26,8,8,0,6,8,9,11,9,0,0,6,6,0,14,0,7,0,260.txt
5,12,10,11,0,16,5,0,15,5,0,0,22,0,0,0,0,0,0,0,6,0,3,0,4,9,13,0,0,5,6,6,8,7,15,28,7,18,0,6,16,9,0,9,0,0,6,5,10,8,16,11,0,261.txt
5,12,10,12,0,16,5,0,4,0,9,0,5,5,0,4,0,0,0,10,0,5,3,0,3,10,29,0,4,5,6,6,8,20,0,26,8,8,17,7,7,9,11,9,0,0,6,6,0,14,0,7,0,264.txt
5,12,10,12,0,16,5,0,4,5,9,0,5,5,0,4,0,0,0,10,0,0,3,10,3,10,30,0,9,4,6,6,8,0,0,26,8,8,17,7,8,9,7,9,0,0,6,7,11,14,24,7,0,269.txt
5,12,10,12,0,16,5,6,4,0,0,5,5,5,0,4,0,0,0,9,6,0,3,5,3,10,26,0,0,5,6,6,8,0,14,26,8,8,8,6,9,9,10,9,0,0,6,7,5,14,0,0,5,272.txt
5,12,10,12,0,16,5,0,4,5,9,0,5,5,0,4,0,0,0,10,0,0,3,0,3,10,29,0,9,5,6,0,8,0,0,26,8,8,0,9,8,9,11,9,0,0,6,6,0,14,0,7,0,274.txt
5,12,17,14,0,7,8,0,0,7,0,0,17,0,0,0,7,15,6,4,6,4,0,0,5,11,0,14,8,5,5,9,0,7,0,6,10,0,16,6,0,0,8,11,0,0,7,5,14,0,0,0,0,276.txt
5,12,10,12,0,16,5,0,15,0,9,0,5,5,0,4,0,0,0,10,6,0,3,0,3,10,29,11,4,5,6,0,8,8,11,26,8,22,17,7,7,9,11,9,0,0,6,6,0,14,0,7,0,280.txt
5,12,10,12,0,16,5,6,4,0,9,5,10,11,0,8,0,0,0,10,6,0,3,9,3,10,29,0,9,4,6,0,8,0,17,26,8,8,17,7,8,9,7,9,0,0,6,6,7,14,0,7,0,282.txt
5,12,10,12,0,16,5,21,12,0,0,8,17,0,0,0,0,0,0,11,6,0,3,0,4,10,27,9,0,5,6,6,8,8,10,26,8,23,16,6,16,9,10,9,0,0,6,10,5,20,0,0,0,283.txt
5,12,10,11,0,16,5,0,15,0,0,0,5,5,0,4,0,0,0,0,6,0,3,0,3,9,15,15,0,5,6,0,8,7,0,19,7,12,0,6,0,9,9,9,0,0,6,5,10,8,0,6,0,284.txt
5,12,10,11,0,17,5,0,15,0,0,0,5,5,0,4,0,0,0,10,0,0,3,0,3,9,13,29,0,5,6,6,8,7,0,28,7,12,0,6,0,9,9,9,0,0,6,5,10,8,0,6,0,286.txt
5,12,10,12,0,16,5,0,15,5,0,0,5,5,0,4,0,6,0,0,7,0,3,8,4,10,17,0,0,5,6,6,8,7,6,20,7,17,0,6,0,9,9,9,0,0,6,7,10,14,0,6,8,288.txt
5,12,10,11,0,17,4,0,15,0,0,0,5,5,0,4,0,6,0,10,6,0,3,0,3,9,13,29,0,5,6,0,8,7,0,14,7,12,0,6,0,9,9,9,0,0,6,5,4,8,16,6,0,290.txt
5,12,10,12,0,16,5,6,12,0,9,7,10,0,0,8,0,0,0,0,6,0,3,9,4,10,30,11,4,4,6,6,8,8,10,26,8,23,26,5,7,9,7,9,0,0,6,12,11,14,5,7,0,293.txt
5,12,10,11,0,13,4,0,15,5,0,0,17,0,0,0,0,6,0,0,6,0,3,0,3,9,10,0,0,5,6,0,8,7,0,11,7,12,12,6,0,10,8,9,0,0,6,5,6,8,13,6,0,295.txt
5,16,10,12,0,16,5,6,15,5,0,5,5,5,9,4,16,6,0,0,5,0,3,0,3,10,1,9,1,12,6,1,1,1,1,1,1,1,2,1,1,1,1,1,1,1,1,2,1,1,1,1,1,297.txt
5,12,10,11,0,17,5,6,15,0,0,7,17,0,0,0,0,6,0,8,0,0,3,0,3,9,13,14,0,5,6,6,8,7,0,14,7,12,10,6,0,9,9,9,0,0,6,5,10,8,0,6,0,300.txt
5,12,10,12,0,16,5,0,4,0,0,0,5,5,0,4,0,0,0,0,0,0,3,0,3,10,26,0,0,5,6,0,8,0,0,26,8,8,0,6,9,9,10,9,0,0,6,6,0,14,0,0,0,303.txt
5,12,8,9,0,13,4,0,4,5,0,0,5,5,0,4,0,6,0,0,6,0,3,0,3,9,10,0,0,5,6,6,8,7,0,8,7,8,0,6,0,11,9,9,0,0,6,5,4,8,0,6,0,305.txt
5,12,10,11,0,6,5,9,5,13,0,19,5,5,0,4,0,6,0,0,6,0,3,0,4,10,17,8,0,5,6,6,8,6,0,20,7,9,0,6,0,9,9,9,0,0,6,5,10,14,0,6,0,307.txt
5,12,10,11,0,16,5,21,10,0,0,8,5,5,0,4,0,6,0,0,0,0,3,0,4,10,17,11,4,5,6,6,8,7,6,20,7,11,0,6,7,9,9,9,0,0,6,5,10,14,0,8,0,311.txt
5,12,10,11,0,16,5,0,15,5,0,0,5,5,0,4,0,0,0,10,0,0,3,0,3,10,17,0,0,5,6,6,8,7,0,20,7,18,0,6,0,9,9,9,0,0,6,5,10,14,0,0,0,313.txt
5,12,10,12,0,16,5,6,15,5,9,5,5,5,0,4,0,0,0,0,6,7,3,0,3,10,29,19,9,4,6,0,8,8,17,26,8,12,17,7,8,9,11,9,0,0,6,6,7,14,13,7,0,318.txt
5,12,10,12,0,16,5,6,4,5,4,5,5,5,0,4,0,0,0,0,0,5,3,3,3,10,29,0,4,4,6,6,8,0,0,26,8,8,17,7,7,9,7,9,0,0,6,7,5,14,0,7,0,320.txt
5,16,8,7,0,13,4,21,12,5,0,8,5,5,9,4,9,6,0,10,6,7,3,0,0,14,4,11,8,5,6,0,8,19,6,7,7,30,0,6,1,1,16,12,6,5,6,5,4,6,4,1,1,322.txt
5,16,8,7,0,13,4,21,12,5,0,8,5,5,9,4,9,6,0,10,6,7,3,0,0,14,4,11,8,5,6,0,8,19,6,7,7,30,0,6,1,1,16,12,6,5,6,5,4,6,4,1,1,323.txt
5,12,10,12,0,16,5,6,15,5,0,7,5,5,0,4,0,0,0,10,6,0,3,0,3,10,29,0,9,5,6,6,8,12,10,26,8,17,11,6,22,9,10,9,0,0,6,7,5,14,0,7,0,324.txt
5,12,10,11,0,13,4,6,15,5,0,5,12,0,0,0,0,6,0,0,7,0,3,4,4,9,10,11,0,5,6,0,8,7,8,11,7,22,8,6,24,10,9,9,0,0,6,5,6,8,18,6,8,326.txt
5,12,8,7,0,10,4,6,0,5,0,7,17,11,0,0,0,16,0,0,6,0,3,0,5,4,5,11,0,5,0,5,6,7,15,7,10,0,10,6,0,0,9,11,0,0,8,5,14,0,16,11,0,328.txt
5,12,10,12,5,16,5,5,4,0,13,5,5,5,0,4,0,0,0,9,9,0,4,4,4,10,29,0,9,4,6,6,8,19,8,26,8,8,17,7,10,9,11,9,7,0,6,7,5,14,7,7,7,329.txt
5,12,10,12,0,16,5,6,4,0,4,7,5,5,0,4,0,0,0,9,7,0,3,10,3,10,29,0,4,4,6,6,8,8,8,26,8,8,17,7,7,9,7,9,0,0,6,7,5,14,0,7,7,333.txt
5,12,10,12,0,16,5,0,15,0,4,0,5,5,0,4,0,0,0,0,8,0,3,8,4,10,29,0,4,5,6,6,8,8,8,26,8,13,0,6,7,9,10,9,0,0,6,7,5,14,0,7,6,335.txt
5,12,10,12,0,16,5,0,15,5,9,0,5,5,0,4,0,0,0,0,0,0,3,0,3,10,29,0,9,4,6,0,8,10,10,26,8,17,17,7,8,9,11,9,0,0,6,6,0,14,0,7,0,337.txt
4,6,15,19,4,5,12,4,3,10,0,17,4,22,11,0,0,0,0,9,7,0,3,8,15,10,26,5,0,5,6,6,8,6,8,26,8,9,9,6,22,9,10,9,7,0,6,9,7,16,15,0,5,341.txt
5,12,8,8,0,13,4,0,15,0,0,0,7,5,0,4,0,19,0,0,0,0,3,0,5,8,6,29,0,5,0,0,8,7,6,7,10,0,12,6,0,7,9,11,0,0,6,5,13,0,16,6,0,342.txt
5,12,10,12,0,16,5,6,4,0,4,7,5,5,0,4,0,6,0,10,6,0,3,0,3,10,17,0,4,5,6,0,8,7,6,26,8,8,11,6,7,9,9,9,0,0,6,6,0,14,0,6,0,344.txt
5,12,10,11,0,16,5,0,4,5,0,0,5,5,0,4,0,0,0,10,0,0,3,0,3,10,16,0,0,5,6,0,8,7,0,20,7,8,15,6,0,9,9,9,0,0,6,5,10,8,0,0,0,347.txt
5,12,10,11,0,16,5,0,15,0,0,0,5,5,0,4,0,6,0,9,9,0,3,4,3,9,14,0,6,5,6,0,8,7,8,19,7,17,0,6,21,9,9,9,0,0,6,5,10,8,0,0,5,349.txt
5,12,20,14,0,7,4,0,0,0,0,0,12,0,0,0,0,16,6,19,7,4,3,15,5,11,0,0,0,5,0,5,11,7,8,7,10,0,0,6,0,0,0,11,0,0,7,5,14,0,0,0,5,352.txt
5,12,8,13,0,13,4,0,4,5,0,0,0,0,0,0,0,6,0,10,6,0,3,0,3,9,8,0,0,5,0,0,8,7,0,7,10,8,0,6,0,7,0,11,0,0,6,5,6,8,0,0,0,354.txt
5,12,10,12,0,16,5,0,15,0,9,0,5,5,0,4,0,0,0,0,6,0,3,0,3,10,29,0,4,5,6,0,8,8,0,26,8,17,17,7,7,9,11,9,0,0,6,6,0,14,0,7,0,358.txt
5,12,10,12,0,16,5,6,15,0,9,5,5,5,0,4,0,0,0,0,7,0,3,10,4,10,30,0,9,4,6,6,8,8,8,26,8,8,17,7,8,9,7,9,0,0,6,7,11,14,5,7,6,360.txt
5,12,10,11,0,14,4,0,15,0,0,0,5,5,0,4,0,6,0,0,6,7,3,0,3,9,12,0,0,5,6,6,8,7,0,12,7,13,0,6,0,10,9,9,0,0,6,5,4,8,0,6,0,362.txt
5,12,10,12,0,16,5,6,15,0,0,5,12,0,0,0,0,6,0,0,7,3,3,4,3,10,17,16,0,5,6,0,8,7,8,21,7,12,8,6,0,9,9,9,0,0,6,0,7,14,0,6,8,364.txt
5,12,10,12,0,16,5,0,15,5,9,0,5,5,0,4,0,0,0,0,0,0,3,0,4,10,29,18,12,5,6,6,8,8,27,26,8,12,0,6,8,9,11,9,0,0,6,7,5,14,0,7,0,365.txt
5,12,10,12,0,16,5,21,12,0,9,8,5,5,0,4,0,0,0,10,8,0,3,8,4,10,29,11,9,5,6,6,8,8,17,26,8,23,17,7,8,9,11,9,0,0,6,7,5,14,15,7,6,368.txt
5,12,10,11,0,16,5,0,4,5,0,0,5,5,0,4,0,0,0,0,6,0,3,0,3,9,15,0,0,5,6,0,8,7,6,19,7,8,0,6,9,9,9,9,0,0,6,5,10,8,0,6,0,369.txt
5,12,10,12,0,16,5,0,4,5,0,0,5,5,0,4,0,0,0,8,6,0,3,0,3,10,29,0,8,5,6,0,8,25,0,26,8,8,14,6,8,9,11,9,0,0,6,6,0,14,16,11,0,371.txt
5,16,8,8,5,13,4,20,15,5,0,5,19,5,9,4,9,6,0,11,6,0,3,0,3,9,4,13,0,0,6,0,8,0,6,7,7,12,8,0,0,7,9,9,7,5,6,2,1,10,1,6,0,375.txt
5,12,8,8,0,13,4,0,15,0,0,0,17,0,0,0,0,5,0,10,6,0,3,0,3,9,7,29,0,5,0,6,8,7,0,7,10,12,0,6,0,11,9,11,0,0,6,5,13,8,16,6,0,377.txt
5,12,10,11,0,13,4,0,4,5,0,0,5,5,0,0,0,0,0,10,0,0,3,0,3,9,10,0,0,5,6,0,8,7,0,10,7,8,0,6,16,10,9,9,0,0,6,5,6,8,0,6,0,380.txt
6,8,8,29,0,13,4,0,15,5,14,0,5,17,9,10,10,2,9,17,4,16,5,2,2,21,2,2,2,2,9,4,16,4,4,5,6,6,6,10,28,5,6,12,10,5,6,6,0,10,4,4,4,382.txt
5,16,10,12,0,16,5,0,15,0,0,0,5,5,9,4,0,0,0,10,6,0,3,0,4,10,26,14,8,5,6,6,8,10,10,26,8,12,0,6,30,9,9,9,0,0,6,7,5,14,0,13,0,385.txt
5,16,23,27,0,9,4,6,15,5,0,5,5,5,9,4,9,6,0,10,6,0,3,0,0,0,4,16,0,5,0,0,9,20,0,7,7,7,8,9,0,1,16,12,10,5,8,1,4,5,4,1,1,386.txt
5,12,10,12,0,16,5,6,9,5,9,7,18,0,0,8,0,18,0,0,6,3,3,0,3,10,29,0,9,5,6,0,8,11,30,26,8,19,21,7,8,9,11,9,8,0,6,12,0,14,0,7,0,387.txt
6,18,10,11,0,17,5,0,15,5,0,0,5,5,0,4,0,6,0,9,9,0,3,4,3,9,13,0,0,5,6,0,8,7,8,14,7,12,0,6,0,9,9,9,0,0,6,5,10,8,0,6,5,391.txt
5,12,10,12,0,16,5,6,15,0,4,7,18,0,0,8,0,6,0,11,7,0,3,4,3,10,29,29,4,5,6,0,8,8,8,26,8,12,10,6,7,9,11,9,0,0,6,10,18,14,0,0,6,394.txt
6,8,10,11,0,14,4,21,8,5,0,8,16,0,0,0,0,0,0,10,6,0,3,0,4,9,12,9,0,5,6,0,8,7,0,13,7,10,0,6,0,10,8,9,0,0,6,5,4,21,0,8,0,395.txt
5,12,10,12,0,16,5,0,15,0,0,0,18,0,0,8,0,0,0,0,0,0,3,0,3,10,29,0,8,5,6,6,8,8,10,26,8,18,0,6,8,9,8,9,0,0,6,12,5,14,0,6,0,397.txt
6,8,10,12,0,16,5,0,15,5,0,0,5,5,9,4,0,0,0,0,6,0,3,0,4,10,24,0,8,5,6,6,8,8,10,24,8,17,0,6,9,9,9,9,0,0,6,7,5,14,0,0,0,400.txt
5,16,10,12,0,16,5,17,15,0,0,0,5,7,9,4,0,0,0,0,7,0,3,4,3,10,24,5,0,5,6,0,8,0,8,20,8,12,25,6,0,9,9,9,0,0,6,6,0,16,0,6,6,402.txt
5,12,10,11,0,17,5,6,15,0,0,5,5,5,0,4,0,11,0,0,6,0,0,0,3,9,15,0,0,5,6,0,8,7,0,19,7,17,8,6,0,9,9,9,0,0,6,5,10,8,0,0,0,405.txt
5,12,10,12,0,16,5,5,15,5,4,5,5,5,0,4,0,0,0,9,6,0,3,0,3,10,27,0,4,5,6,6,8,8,22,26,8,19,8,6,7,9,10,9,7,0,6,7,5,14,9,7,5,407.txt
5,16,8,8,0,13,4,12,14,0,0,0,5,5,9,4,9,6,0,10,6,0,3,0,3,9,11,9,0,5,6,0,8,7,0,7,7,23,0,6,0,7,9,9,0,0,6,5,4,19,0,0,0,411.txt
5,12,10,11,0,13,4,6,4,5,0,5,5,5,0,4,0,6,0,0,6,0,3,8,3,9,11,0,0,5,6,0,8,7,9,10,7,8,9,6,0,10,9,9,0,0,6,5,4,8,0,6,8,413.txt
5,12,10,11,0,17,4,0,15,0,0,0,5,5,0,4,0,0,0,9,6,0,0,0,3,9,13,0,0,5,6,0,8,7,0,14,7,14,0,6,0,9,9,9,0,0,6,5,4,8,0,0,5,416.txt
5,16,10,12,0,17,5,6,15,5,0,5,5,5,9,4,9,0,0,10,9,0,3,4,3,9,17,19,0,5,6,6,8,8,8,20,7,12,8,9,0,9,9,9,0,0,6,5,10,14,0,0,6,417.txt
5,12,10,12,0,16,5,6,15,0,9,7,10,0,0,8,0,0,0,0,6,0,3,7,3,10,30,0,9,4,6,0,8,8,12,26,8,17,17,5,8,9,7,9,0,0,6,12,0,14,5,7,0,419.txt
5,12,10,12,0,16,5,6,4,5,4,5,5,5,0,4,0,0,0,0,7,0,3,4,4,10,27,0,4,5,6,6,8,10,8,26,8,19,8,6,7,9,10,9,0,0,6,8,5,14,0,6,6,421.txt
5,12,10,12,0,16,5,0,4,0,9,0,5,5,0,4,0,0,0,0,6,0,3,5,4,10,29,0,9,4,6,6,8,20,17,26,8,8,17,7,8,9,11,9,0,0,6,8,5,14,0,7,0,423.txt
5,12,8,8,0,13,4,0,15,0,0,0,5,5,0,4,0,6,0,0,6,0,3,0,5,8,7,29,0,5,0,0,8,7,0,7,0,13,0,6,0,7,9,11,0,0,6,5,6,8,0,0,0,425.txt
5,12,10,12,0,16,5,6,4,0,9,7,5,5,0,4,0,0,0,10,6,5,3,10,3,10,30,0,9,4,6,6,8,8,0,26,8,8,17,7,8,9,7,9,0,0,6,7,5,14,0,7,0,427.txt
5,12,10,12,0,16,5,6,4,5,4,7,5,5,0,4,0,0,0,0,6,5,3,10,3,10,30,0,4,4,6,8,8,20,0,26,8,8,17,7,7,9,7,9,0,0,6,13,11,14,20,7,0,430.txt
5,12,10,11,0,21,4,0,4,5,0,0,5,5,0,4,0,6,0,0,6,0,3,0,4,9,13,0,0,5,6,6,8,7,26,14,7,8,0,6,0,9,9,9,0,0,6,5,4,8,19,6,0,434.txt
5,12,10,12,0,16,5,21,12,5,4,11,5,5,0,4,0,0,0,10,0,0,3,0,4,10,29,11,4,5,6,0,8,8,17,26,8,23,0,9,7,9,11,9,0,0,6,6,12,14,0,7,0,436.txt
5,12,10,12,0,16,5,0,15,0,4,0,5,5,0,4,0,0,0,9,6,0,0,0,3,10,27,11,4,5,6,6,8,8,10,26,8,22,0,6,7,9,10,9,0,0,6,7,5,14,0,0,5,439.txt
5,12,10,12,0,16,5,6,13,0,4,7,10,0,0,8,0,0,0,0,8,0,3,8,4,10,29,9,4,4,6,0,8,8,8,26,8,23,17,7,7,9,11,9,0,0,6,6,0,16,0,7,6,444.txt
5,12,10,11,0,16,5,21,8,0,0,8,5,8,0,4,0,0,0,10,6,0,3,0,3,10,17,9,0,5,6,0,8,7,0,20,7,10,0,6,0,9,9,9,0,0,6,5,10,19,0,6,0,447.txt
5,12,10,12,5,16,5,5,23,0,19,8,5,5,0,8,0,6,0,0,6,5,3,9,4,10,30,9,4,4,6,0,8,8,17,26,8,10,17,5,7,9,12,9,7,0,6,6,19,17,5,7,0,449.txt
5,12,10,12,0,16,5,0,4,5,0,0,5,5,0,4,0,0,0,10,7,7,3,4,3,10,25,0,8,5,6,0,8,0,6,26,8,8,0,6,0,9,10,9,0,0,6,6,0,14,0,0,8,452.txt
5,12,10,11,0,13,4,0,15,0,0,0,12,0,0,0,0,6,0,9,7,0,3,4,4,9,10,29,0,5,6,6,8,7,8,12,7,12,12,6,0,10,9,9,0,0,6,5,4,8,16,6,5,454.txt
5,12,10,11,0,13,4,21,11,0,0,8,5,5,0,4,0,0,0,10,6,0,3,0,3,9,11,9,0,5,6,0,8,7,0,10,7,23,0,6,16,10,9,9,0,0,6,5,4,19,16,11,0,456.txt
5,12,10,11,0,16,5,0,4,5,0,0,5,5,0,14,0,0,0,0,0,0,3,0,3,10,17,0,0,5,6,6,8,7,0,20,7,8,15,6,0,9,9,9,0,0,6,5,10,14,0,0,0,458.txt
5,12,10,12,0,16,5,0,4,0,0,0,5,5,0,4,0,6,0,0,6,7,3,0,3,10,17,0,0,5,6,6,8,7,0,27,8,8,0,6,0,9,9,9,0,0,6,7,5,14,0,6,0,460.txt
5,12,10,12,0,16,5,0,15,0,0,0,5,5,0,4,0,6,0,0,0,0,3,0,3,10,21,18,0,5,6,0,8,7,6,26,8,12,0,6,0,9,9,9,0,0,6,6,0,14,0,6,0,463.txt
5,12,10,11,0,17,5,6,15,0,0,7,17,0,0,0,0,6,0,10,0,0,0,0,3,9,13,15,0,5,6,6,8,7,0,28,7,12,10,6,0,9,9,9,0,0,6,5,10,8,0,11,0,465.txt
5,12,10,12,0,16,5,0,15,0,0,0,5,5,0,4,0,6,0,10,0,0,3,0,4,10,17,29,0,5,6,6,8,7,0,25,7,12,0,6,0,9,9,9,0,0,6,8,5,14,0,6,0,469.txt
5,16,10,12,5,17,6,20,10,0,0,7,5,5,9,4,8,0,0,0,6,0,3,0,4,9,24,9,12,5,6,0,8,8,10,17,8,23,23,9,9,9,9,9,7,5,6,6,18,21,7,5,0,472.txt
5,12,10,11,0,16,5,0,15,0,0,0,5,5,0,4,0,6,0,0,0,0,3,0,4,9,15,0,0,5,6,6,8,7,6,28,7,17,0,6,0,9,9,9,0,0,6,5,10,8,0,0,0,473.txt
5,12,10,12,0,16,5,14,16,0,0,0,5,5,0,4,0,0,0,10,0,0,3,0,4,10,27,9,5,5,6,6,8,8,10,26,8,22,0,6,8,9,10,9,0,0,6,7,5,21,16,6,0,475.txt
5,12,10,11,0,16,5,0,15,0,0,0,5,5,0,4,0,0,0,0,6,0,3,0,3,9,17,0,0,5,6,6,8,7,0,20,7,8,0,6,0,9,9,9,0,0,6,5,10,14,0,6,0,477.txt
5,12,10,11,0,16,5,0,4,5,0,0,5,5,0,4,0,0,0,10,6,0,3,0,3,10,15,0,0,5,6,6,8,7,0,20,7,8,0,6,16,9,9,9,0,0,6,5,10,8,0,0,0,479.txt
5,12,10,11,0,13,4,0,4,5,0,0,5,5,0,4,0,6,0,10,6,0,3,0,3,9,12,0,0,5,6,0,8,7,0,11,7,8,0,6,0,10,9,9,0,0,6,5,4,8,0,8,0,481.txt
5,12,10,11,0,16,5,0,4,0,0,0,5,5,0,4,0,0,0,0,6,0,3,12,3,10,17,0,8,5,6,6,8,7,0,20,7,8,15,6,9,9,9,9,0,0,6,5,10,14,0,0,0,485.txt
5,12,10,12,0,16,5,0,4,0,0,0,5,5,0,4,0,0,0,0,7,0,3,4,3,10,27,0,8,5,6,0,8,20,8,26,8,8,12,6,9,9,10,9,0,0,6,6,0,14,0,13,6,487.txt
5,12,10,12,0,16,5,0,15,0,0,0,5,8,0,4,0,0,0,0,6,0,3,8,3,10,18,15,4,5,6,0,8,7,9,26,8,12,0,6,7,9,9,9,0,0,6,6,0,14,0,6,8,488.txt
6,18,10,12,0,16,5,0,4,0,9,0,5,5,0,4,0,0,0,0,6,0,3,0,3,10,29,0,7,5,6,0,8,20,0,26,8,8,17,7,8,9,11,9,0,0,6,6,0,14,0,7,0,491.txt
5,12,10,12,0,16,5,6,15,5,0,7,5,5,0,4,0,0,0,0,0,0,3,0,3,10,27,0,0,5,6,0,8,11,0,26,8,17,11,6,8,9,10,9,0,0,6,6,0,14,0,6,0,492.txt
5,12,10,12,0,16,5,6,15,0,0,5,5,5,0,4,0,6,0,10,0,0,0,0,3,10,20,12,0,5,6,6,8,7,0,26,8,14,8,6,0,9,9,9,0,0,6,7,5,14,0,0,0,494.txt
5,12,5,14,0,7,8,9,0,0,0,8,16,15,0,0,0,16,6,5,6,4,0,0,5,11,0,8,8,5,0,5,11,7,0,7,10,0,13,6,11,0,9,11,0,0,7,5,14,19,0,0,0,496.txt
5,12,10,12,0,16,5,6,4,0,4,5,5,5,0,4,0,0,0,0,0,0,3,0,4,10,29,0,4,4,6,6,8,0,10,26,8,8,20,7,7,9,11,9,0,0,6,7,5,14,0,7,0,498.txt
5,12,10,12,0,16,5,6,15,5,0,7,5,5,0,4,0,0,0,10,6,0,0,0,3,10,17,0,8,5,6,0,8,7,11,21,7,17,11,6,30,9,9,9,0,0,6,5,10,14,0,0,0,500.txt
5,12,20,14,0,7,4,21,0,0,0,12,7,5,0,4,0,16,0,0,6,0,3,8,5,11,5,9,8,5,0,10,11,7,25,7,10,0,12,6,9,0,9,11,0,0,7,5,14,16,0,13,8,502.txt
5,12,8,8,0,13,4,0,4,0,0,0,7,5,0,4,0,6,0,0,6,0,0,12,5,8,6,0,0,5,0,0,8,7,0,7,10,0,12,6,0,7,9,11,0,0,6,5,6,7,0,0,0,503.txt
5,12,10,11,0,17,5,0,15,0,0,0,5,5,0,4,0,6,0,10,0,0,3,0,3,9,15,15,0,5,6,0,8,7,0,18,7,12,12,6,0,9,9,9,0,0,6,5,10,14,15,0,0,505.txt
5,12,10,12,0,16,5,0,4,0,0,0,5,5,0,4,0,0,0,8,6,0,3,0,4,10,17,0,0,5,6,6,8,7,0,25,7,8,0,6,0,9,9,9,0,0,6,7,5,14,0,6,0,507.txt
5,12,10,11,0,17,4,0,15,0,0,0,5,5,0,4,0,6,0,0,8,0,3,8,4,9,15,9,6,5,6,0,8,7,6,16,7,12,25,6,7,9,9,9,0,0,6,5,4,16,0,6,8,510.txt
5,12,10,11,0,17,5,5,15,5,0,0,5,5,0,4,0,0,0,9,6,0,4,8,4,9,15,0,0,5,6,6,8,7,8,20,7,14,0,6,24,9,9,9,7,0,6,5,10,14,7,0,5,513.txt
5,12,10,12,0,16,5,6,4,5,9,7,5,5,0,4,0,0,0,0,6,0,3,5,3,10,29,0,4,4,6,6,8,0,0,26,8,8,17,7,7,9,11,9,0,0,6,7,5,14,0,7,0,516.txt
5,12,10,11,0,14,4,21,12,0,0,8,12,0,0,0,0,6,0,0,9,0,3,4,3,9,12,11,0,5,6,0,8,7,8,13,7,23,12,6,0,10,9,9,0,0,6,5,4,8,16,6,8,518.txt
5,16,10,12,0,16,5,6,8,0,9,5,5,5,9,4,9,6,0,9,7,0,0,3,4,10,29,9,9,4,6,0,8,8,17,26,8,10,7,5,25,9,7,9,0,5,6,6,15,16,5,7,7,521.txt
5,16,10,12,0,16,5,6,4,0,0,5,5,5,9,4,11,0,0,6,9,0,3,4,4,10,26,0,9,0,6,6,8,10,18,20,8,20,8,0,0,9,9,9,0,5,6,7,5,14,0,15,5,524.txt
5,12,17,14,0,0,8,0,0,9,0,0,11,5,0,0,7,23,6,4,0,10,3,0,5,11,4,0,8,5,5,9,0,7,0,0,10,21,0,6,9,0,9,11,0,0,7,5,14,0,0,0,0,527.txt
5,12,10,12,0,16,5,6,4,5,0,7,5,5,0,4,0,0,0,0,6,0,3,0,3,10,29,0,12,5,6,0,8,0,0,26,8,8,11,6,8,9,11,9,0,0,6,6,0,14,0,7,0,529.txt
5,12,8,7,0,12,4,6,15,5,0,7,7,5,0,4,0,5,0,0,6,0,3,8,5,5,6,16,0,5,0,0,7,7,13,7,10,0,11,6,0,7,9,11,0,0,6,5,13,0,0,0,8,530.txt
5,12,10,11,0,17,5,0,15,0,0,0,5,5,0,4,0,0,0,10,7,0,3,4,3,9,13,0,0,5,6,0,8,7,8,17,7,20,12,6,0,9,9,9,0,0,6,5,10,8,0,6,8,532.txt
5,12,10,11,0,17,5,0,15,0,0,0,5,5,0,4,0,6,0,0,6,0,3,0,3,9,15,0,6,5,6,0,8,7,0,19,7,17,12,6,7,9,9,9,0,0,6,5,10,8,0,0,0,534.txt
5,12,10,12,0,16,5,0,4,5,0,0,5,5,0,4,0,0,0,9,6,0,3,0,3,10,27,0,5,5,6,0,8,0,0,26,8,8,12,6,12,9,10,9,0,0,6,6,0,14,0,0,5,536.txt
5,12,10,12,0,16,5,0,4,5,0,0,5,5,0,4,0,0,0,0,6,0,0,0,3,10,27,0,0,5,6,0,8,20,0,26,8,8,0,6,12,9,10,9,0,0,6,6,0,14,0,0,0,538.txt
5,12,10,11,0,17,6,0,4,5,0,0,12,0,0,0,0,14,0,0,9,0,3,4,3,9,13,0,0,5,6,0,8,7,8,14,7,8,12,6,0,9,0,9,0,0,6,5,4,8,0,0,8,541.txt
5,12,10,12,0,16,5,0,4,5,0,0,5,5,0,0,0,0,0,10,7,0,3,8,3,10,27,0,4,5,6,0,8,0,8,26,8,8,0,6,7,9,10,9,0,0,6,6,0,14,0,6,8,543.txt
5,12,10,12,0,16,5,0,15,0,0,0,5,5,0,8,0,0,0,10,6,0,3,8,3,10,29,0,5,5,6,0,8,8,9,26,8,14,0,6,8,9,11,9,0,0,6,6,0,14,0,0,6,545.txt
5,12,10,12,0,16,5,21,12,0,9,8,5,5,0,4,0,0,0,10,0,0,3,0,3,10,29,9,9,5,6,6,8,8,17,26,8,23,21,7,8,9,11,9,0,0,6,7,5,21,6,7,0,549.txt
5,12,10,12,0,16,5,0,15,5,0,0,5,5,0,4,0,0,0,0,0,0,3,0,3,10,17,14,0,5,6,0,8,7,0,21,7,12,0,6,16,9,9,9,0,0,6,6,10,14,0,6,0,551.txt
5,12,10,11,0,17,5,0,4,5,0,0,5,5,0,4,0,0,0,0,6,0,0,0,3,9,15,0,6,5,6,6,8,7,0,28,7,8,0,6,7,9,9,9,0,0,6,5,10,8,0,0,0,554.txt
5,12,13,5,0,20,4,0,0,5,0,0,20,0,0,0,0,16,6,5,6,0,3,0,5,11,5,0,0,5,0,10,9,7,0,7,10,0,0,6,0,0,9,11,0,0,4,5,14,0,19,6,0,557.txt
5,12,10,12,0,16,5,6,4,5,0,7,5,5,0,4,0,6,0,9,6,0,3,5,3,10,27,0,0,5,6,0,8,20,0,26,8,8,11,6,10,9,10,9,0,0,6,6,0,14,0,0,5,558.txt
5,12,10,11,0,16,5,6,15,0,0,5,5,5,0,4,0,8,0,9,7,0,3,4,3,9,15,0,0,5,6,6,8,7,8,20,7,14,24,6,0,9,9,9,0,0,6,5,10,14,0,0,5,561.txt
9,5,4,4,10,5,11,4,3,10,0,17,4,3,5,4,9,6,0,0,6,0,3,0,12,11,4,27,0,5,6,0,0,7,0,6,7,7,13,6,0,0,9,9,0,5,0,5,4,21,15,6,0,564.txt
6,18,10,12,0,16,5,21,10,0,0,8,5,8,0,4,0,0,0,10,6,0,3,0,4,10,17,9,0,5,6,6,8,7,10,27,7,23,0,6,0,9,9,9,0,0,6,7,10,19,0,0,0,566.txt
5,12,10,12,0,16,5,21,12,0,0,8,5,5,0,4,0,6,0,10,0,0,3,0,3,10,17,9,0,5,6,6,8,7,0,21,7,23,0,6,0,9,9,9,0,0,6,7,10,14,0,0,0,568.txt
5,12,10,12,0,16,5,0,15,0,0,0,5,5,0,4,0,0,0,0,0,0,3,0,3,10,26,0,0,5,6,6,8,8,0,26,8,12,0,6,0,9,10,9,0,0,6,6,0,14,0,6,0,572.txt
5,12,10,12,0,16,5,0,15,0,9,0,5,5,0,4,0,0,0,0,7,0,3,4,3,10,29,0,9,5,6,0,8,8,8,26,8,14,17,7,8,9,11,9,0,0,6,6,0,14,0,7,6,574.txt
5,12,10,12,0,16,5,0,15,5,0,0,5,5,0,4,0,0,0,0,6,0,3,0,4,10,17,0,0,5,6,6,8,7,10,25,7,8,0,6,0,9,9,9,0,0,6,7,5,14,18,6,0,576.txt
5,12,10,12,0,16,5,0,4,0,4,0,5,5,0,4,0,0,0,0,6,0,3,8,3,10,29,0,4,5,6,0,8,17,13,26,8,8,0,9,7,9,11,9,0,0,6,6,0,14,0,7,0,578.txt
5,16,10,11,0,17,6,0,4,0,0,0,5,5,9,4,0,6,0,10,6,0,3,0,3,9,15,0,0,5,6,0,8,7,0,17,7,8,12,6,0,9,9,9,0,0,6,5,4,13,13,0,0,580.txt
5,12,10,12,0,16,5,0,15,5,0,0,5,5,0,4,0,0,0,0,0,0,0,0,4,10,27,0,0,5,6,6,8,8,10,26,8,17,0,6,0,9,10,9,0,0,6,7,5,14,0,0,0,582.txt
5,12,10,12,0,16,5,0,4,0,9,0,5,5,0,4,0,0,0,10,6,0,3,0,3,10,29,0,9,4,6,7,8,20,10,26,8,8,17,7,8,9,11,9,0,0,6,13,5,14,0,7,0,584.txt
5,16,8,7,0,13,4,21,12,0,0,11,5,5,9,4,18,6,0,0,0,0,3,0,8,6,6,11,0,5,0,6,8,7,10,7,12,0,0,6,18,11,9,11,0,0,6,5,4,0,0,6,0,586.txt
5,12,10,12,0,16,5,6,15,5,9,0,5,5,0,4,0,0,0,0,6,0,3,8,3,10,29,14,4,5,6,0,8,8,9,26,8,12,17,6,7,9,11,9,0,0,6,6,0,14,0,7,6,588.txt
5,12,10,11,0,16,5,0,15,5,0,0,5,5,0,0,0,0,0,0,6,0,3,0,4,10,16,15,0,5,6,6,8,7,6,30,7,12,0,6,0,9,9,9,0,0,6,5,10,8,11,6,0,591.txt
5,12,10,11,0,17,5,7,15,0,0,0,5,5,0,4,0,6,0,10,6,0,0,0,3,9,13,0,0,5,6,0,8,7,0,28,7,14,11,6,0,9,9,9,0,0,6,5,10,8,0,0,0,594.txt
5,12,10,12,0,16,5,0,15,0,0,0,5,5,0,4,0,0,0,10,6,0,3,0,3,10,29,0,4,5,6,0,8,12,10,26,8,17,0,6,7,9,10,9,0,0,6,6,0,14,0,7,0,596.txt
5,12,10,12,0,16,5,0,4,0,9,0,5,5,0,4,0,0,0,0,6,7,3,3,4,10,29,0,9,4,6,6,8,0,17,26,8,8,20,7,8,9,7,9,0,0,6,8,5,14,0,7,0,598.txt
5,12,10,12,0,16,5,6,4,0,4,0,5,5,0,4,0,0,0,0,6,0,3,0,3,10,29,0,4,4,6,0,8,19,0,26,8,8,17,7,7,9,11,9,0,0,6,6,0,14,0,7,0,600.txt
5,12,10,12,0,16,5,5,4,5,0,0,5,5,0,4,0,0,0,10,0,0,3,0,4,10,26,0,0,5,6,6,8,20,10,26,8,8,0,6,20,9,10,9,0,0,6,7,5,14,10,0,0,603.txt
5,12,10,11,0,13,4,6,15,5,0,5,5,5,0,4,0,6,0,0,7,0,3,4,3,9,12,0,6,5,6,6,8,7,8,11,7,17,8,6,21,10,9,9,0,0,6,5,4,8,0,6,8,604.txt
5,12,10,12,0,16,5,6,15,5,4,5,5,5,0,4,0,0,0,0,6,0,3,8,3,10,29,0,4,5,6,0,8,8,9,26,8,17,17,7,7,9,11,9,0,0,6,6,7,14,0,7,6,606.txt
5,12,10,12,0,16,5,0,15,0,9,0,5,5,0,4,0,0,0,10,0,0,3,0,3,10,29,0,12,5,6,0,8,10,0,26,8,8,12,6,8,9,11,9,0,0,6,6,0,14,0,7,0,607.txt
5,12,10,12,0,16,5,6,4,0,9,7,5,5,0,4,0,6,0,0,6,0,3,0,3,10,29,0,9,5,6,0,8,20,0,26,8,8,30,7,8,9,11,9,0,0,6,6,0,14,0,7,0,613.txt
5,12,10,12,0,16,5,6,4,5,4,7,5,5,0,4,0,0,0,9,6,0,0,8,3,10,29,0,4,5,6,0,8,0,25,26,8,8,17,7,7,9,11,9,0,0,6,6,8,14,0,7,7,615.txt
5,12,10,12,0,16,5,6,15,5,9,5,5,5,0,4,0,0,0,0,0,0,3,0,3,10,29,0,9,5,6,0,8,10,17,26,8,17,17,7,8,9,11,9,0,0,6,6,7,14,0,7,0,618.txt
5,12,10,12,0,16,5,0,4,0,9,0,5,5,0,4,0,0,0,9,7,0,3,10,3,10,30,0,9,4,6,6,8,0,17,26,8,8,17,7,10,9,7,9,0,0,6,7,11,14,0,7,7,621.txt
5,16,10,12,0,16,5,6,15,0,0,7,5,5,9,4,0,0,0,9,9,0,0,4,3,10,27,0,9,5,6,6,8,8,8,26,8,8,23,9,10,9,9,9,0,0,6,7,5,14,0,15,5,623.txt
5,16,10,11,0,14,4,6,15,0,0,5,5,5,9,4,9,6,0,11,6,0,0,0,4,9,15,9,0,5,6,6,8,8,6,12,7,12,8,0,0,10,9,9,0,0,6,5,4,21,0,0,0,624.txt
5,12,10,12,0,16,5,0,4,0,0,0,5,5,0,4,0,0,0,0,6,0,3,0,3,10,29,0,9,5,6,6,8,0,17,26,8,8,0,6,8,9,10,9,0,0,6,7,5,14,0,7,0,627.txt
5,12,10,12,0,16,5,0,15,0,4,0,5,5,0,4,0,0,0,0,6,0,3,0,3,10,26,16,4,5,6,0,8,7,0,26,8,12,0,6,7,9,10,9,0,0,6,6,0,14,0,13,0,628.txt
5,12,10,12,0,16,5,6,4,0,0,5,5,5,0,4,0,0,0,0,8,0,3,8,3,10,29,0,12,5,6,0,8,8,8,26,8,19,8,6,8,9,11,9,0,0,6,6,7,14,0,7,6,629.txt
6,8,10,12,0,16,5,0,15,5,9,0,5,5,9,4,9,0,10,0,6,7,3,10,4,10,30,0,9,4,6,6,8,20,17,26,8,14,7,5,8,9,6,12,6,5,6,1,16,14,4,1,1,631.txt
5,12,10,10,5,13,4,5,10,0,0,8,14,0,0,0,0,6,0,0,8,0,3,8,3,9,10,9,0,5,0,6,8,7,6,10,7,23,12,6,0,10,9,9,7,0,6,5,6,16,7,0,8,633.txt
5,12,10,12,0,16,5,0,4,0,0,0,5,5,0,4,0,0,0,0,6,0,3,0,3,10,27,0,0,5,6,6,8,23,0,26,8,8,0,6,0,9,10,9,0,0,6,7,5,14,0,0,0,635.txt
5,12,10,12,0,16,5,0,4,5,0,0,5,5,0,4,0,0,0,0,6,0,3,0,3,10,22,0,0,5,6,0,8,19,6,26,8,8,0,6,18,9,9,9,0,0,6,6,0,14,0,6,0,637.txt
7,13,10,12,0,16,5,0,15,0,10,0,6,9,0,8,0,0,0,11,7,0,3,8,3,10,29,24,9,5,6,6,8,8,21,26,8,12,17,7,8,9,11,9,0,0,6,1,1,14,0,1,1,642.txt
5,12,10,12,0,16,5,6,4,0,0,5,5,5,0,4,0,0,0,9,7,0,0,4,4,10,27,0,0,5,6,6,8,8,8,26,8,20,8,6,10,9,10,9,0,0,6,8,5,14,0,0,5,645.txt
5,16,10,12,0,16,5,6,4,5,0,5,5,5,9,4,9,6,0,11,6,7,3,0,3,10,27,0,9,0,6,0,8,15,0,25,8,8,8,0,0,9,6,12,10,5,6,1,1,14,4,4,4,647.txt
5,12,10,12,0,16,5,6,15,0,4,5,5,5,0,4,0,0,0,0,7,0,3,4,3,10,17,0,4,5,6,0,8,7,8,26,8,17,8,6,7,9,9,9,0,0,6,6,7,14,15,6,8,650.txt
5,12,10,11,0,16,5,0,15,5,0,0,5,5,0,4,0,6,0,9,6,7,0,0,3,10,17,16,0,5,6,6,8,7,0,20,7,12,0,6,0,9,9,9,0,0,6,5,10,14,0,0,5,652.txt
5,12,10,12,0,16,5,21,12,0,4,20,5,5,0,4,0,0,0,9,8,0,0,10,3,10,30,9,4,4,6,6,8,8,8,26,8,23,17,5,7,9,7,9,0,0,6,7,11,16,5,7,7,654.txt
5,12,10,11,0,16,5,21,12,0,0,8,5,8,0,0,0,8,0,0,0,0,3,0,3,10,17,9,6,5,6,6,8,7,0,20,7,23,13,6,7,9,9,9,0,0,6,5,10,21,0,0,0,657.txt
5,12,10,12,0,16,5,0,15,0,0,0,5,5,0,4,0,0,0,11,6,0,3,0,3,10,29,0,9,5,6,0,8,8,17,26,8,14,0,9,8,9,11,9,0,0,6,6,0,14,0,7,0,658.txt
5,12,10,12,0,16,5,0,4,0,4,0,5,5,0,4,0,0,0,11,6,14,3,10,3,10,30,0,4,4,6,6,8,0,17,26,8,8,17,5,7,9,7,9,0,0,6,7,11,14,14,7,0,662.txt
5,12,10,11,0,16,5,6,4,5,0,5,5,5,0,4,0,0,0,9,6,0,0,8,3,9,14,0,0,5,6,0,8,7,9,28,7,8,8,6,0,9,9,9,0,0,6,5,10,8,19,0,5,663.txt
5,12,10,12,0,16,5,0,4,0,0,0,5,5,0,4,0,0,0,11,6,0,3,0,3,10,26,0,0,5,6,0,8,10,6,26,8,8,0,6,9,9,10,9,0,0,6,6,0,14,0,0,0,665.txt
5,12,10,12,0,16,5,0,4,0,0,0,5,5,0,4,0,0,0,0,8,0,3,8,3,10,17,0,0,5,6,0,8,7,6,26,8,8,0,6,20,9,9,9,0,0,6,6,0,14,0,6,8,669.txt
5,12,10,12,0,16,5,0,4,5,4,0,5,5,0,14,0,0,0,21,7,0,3,4,3,10,29,0,4,5,6,0,8,0,8,26,8,8,17,7,7,9,11,9,0,0,6,6,0,14,0,7,6,671.txt
5,12,10,11,0,17,5,0,15,0,0,0,5,5,0,0,0,6,0,0,9,7,3,4,3,9,15,12,0,5,6,0,8,7,6,28,7,15,0,6,0,9,9,9,0,0,6,5,10,8,0,0,8,673.txt
5,12,10,11,0,17,4,6,15,0,0,7,5,5,0,4,0,6,0,0,0,0,3,0,3,9,13,0,0,5,6,6,8,7,0,14,7,8,10,6,0,9,9,9,0,0,6,5,4,8,0,6,0,675.txt
5,16,22,23,0,7,4,0,15,5,0,0,5,5,9,4,8,6,0,9,6,0,3,8,12,11,4,16,0,5,0,0,10,7,9,7,7,0,14,6,0,0,9,9,0,0,8,5,4,0,0,0,5,678.txt
5,12,10,11,0,17,6,0,15,0,0,0,15,0,0,0,0,0,0,0,6,0,3,8,3,9,13,0,0,5,6,0,8,7,9,14,7,17,0,6,17,9,9,9,0,0,6,5,4,8,0,0,8,680.txt
5,12,10,12,0,16,5,0,4,5,0,0,5,5,0,4,0,0,0,0,6,0,3,8,3,10,29,0,5,5,6,0,8,0,0,26,8,8,0,6,8,9,11,9,0,0,6,6,0,14,0,6,0,683.txt
5,12,10,12,0,16,5,0,4,0,9,0,5,5,0,4,0,0,0,0,0,0,3,10,3,10,30,0,9,4,6,6,8,8,0,26,8,18,17,7,8,9,7,9,0,0,6,7,11,14,5,7,0,685.txt
5,12,10,12,0,16,5,0,4,5,0,0,5,5,0,4,0,0,0,0,6,0,3,0,3,10,29,0,5,5,6,0,8,19,0,26,8,8,0,6,8,9,10,9,0,0,6,6,0,14,0,13,0,687.txt
5,12,10,12,0,16,5,0,4,0,4,0,5,5,0,4,0,0,0,0,6,0,3,0,3,10,26,0,4,5,6,0,8,12,0,26,8,8,0,6,7,9,10,9,0,0,6,6,0,14,0,0,0,689.txt
6,18,10,12,0,16,5,0,15,0,0,0,5,5,0,4,0,6,0,0,6,0,3,0,3,10,17,0,0,5,6,0,8,7,6,26,7,12,0,6,0,9,9,9,0,0,6,6,0,14,0,6,0,691.txt
5,16,10,12,5,16,5,5,11,5,0,7,5,5,9,4,11,8,0,0,6,0,3,0,4,10,29,9,4,5,6,0,8,8,10,26,8,23,11,0,7,9,9,9,7,0,6,6,19,21,7,7,0,695.txt
5,12,10,11,0,16,5,0,15,0,0,0,5,5,0,4,0,0,0,10,0,0,3,0,3,10,17,15,4,5,6,0,8,7,0,20,7,12,0,6,7,9,9,9,0,0,6,5,10,14,0,6,0,696.txt
5,16,10,11,0,17,5,0,15,5,0,0,5,5,9,4,0,6,0,12,9,0,3,4,4,9,15,0,0,5,6,6,8,7,19,20,7,17,0,6,0,9,9,9,0,0,6,5,10,14,0,6,5,700.txt
5,12,8,8,0,13,4,0,4,5,0,0,7,5,0,4,0,6,0,10,0,0,3,0,3,9,7,0,0,5,0,0,8,7,0,7,10,8,12,6,0,7,9,11,0,0,6,5,6,8,0,6,0,703.txt
5,16,10,12,5,16,5,5,5,0,14,8,9,4,9,3,10,17,9,3,4,18,2,2,14,2,3,2,2,2,4,3,15,5,5,4,6,6,5,4,5,12,9,9,7,5,6,6,19,21,5,7,0,705.txt
5,12,10,12,0,16,5,0,15,5,0,0,5,5,0,4,0,0,0,7,6,0,3,0,3,10,17,0,0,5,6,0,8,7,0,20,7,8,0,6,0,9,9,9,0,0,6,6,10,14,0,0,0,706.txt
5,12,10,12,0,16,5,5,5,0,4,8,5,4,0,4,0,8,0,10,6,0,3,0,3,10,29,5,4,8,6,6,8,8,17,26,8,9,17,7,7,9,11,9,0,0,6,7,5,19,6,7,0,709.txt
5,12,10,12,0,16,5,21,7,0,0,8,5,8,0,4,0,0,0,0,6,0,3,0,3,10,29,9,0,5,6,0,8,8,0,26,8,10,13,6,14,9,11,9,0,0,6,6,0,21,13,6,0,711.txt
5,12,10,12,5,16,5,5,15,0,0,0,9,5,0,4,0,0,0,10,0,7,3,0,3,10,27,20,8,5,6,0,8,8,23,26,8,14,12,6,8,9,11,9,7,0,6,6,0,14,7,13,0,712.txt
5,12,17,14,0,19,8,0,0,7,0,0,17,0,0,0,7,23,6,4,6,4,3,0,5,11,4,0,8,5,5,9,0,7,6,6,10,21,0,6,0,0,0,11,0,0,7,5,14,0,0,0,0,713.txt
5,12,10,12,0,16,5,6,4,0,4,7,5,5,0,4,0,0,0,0,6,7,3,10,3,10,30,0,4,4,6,6,8,0,0,26,8,8,17,5,7,9,7,9,0,0,6,6,8,14,23,7,0,716.txt
5,12,10,12,0,16,5,21,8,0,0,8,5,5,0,4,0,6,0,10,0,0,3,0,4,10,24,9,0,5,6,6,8,7,0,26,8,10,13,6,0,9,10,9,0,0,6,6,12,21,16,6,0,722.txt
5,12,10,12,0,16,5,6,4,0,0,5,12,0,0,0,0,0,0,9,7,0,0,4,3,10,17,0,0,5,6,0,8,7,8,21,7,8,24,6,9,9,9,9,0,0,6,9,10,14,0,0,5,724.txt
5,12,10,12,0,16,5,5,4,0,9,0,5,5,0,4,0,0,0,10,6,7,3,10,4,10,30,0,4,4,6,6,8,19,17,26,8,8,17,5,7,9,7,9,0,0,6,7,11,14,14,7,0,727.txt
5,12,10,11,0,13,4,0,15,0,0,0,15,0,0,0,0,6,0,0,6,0,3,8,3,9,10,0,0,5,6,6,8,7,25,10,7,17,0,6,0,10,9,9,0,0,6,5,6,8,0,0,8,728.txt
5,12,10,12,0,16,5,6,4,5,0,0,5,5,0,4,0,0,0,0,6,0,3,8,3,10,17,0,8,5,6,0,8,7,9,27,7,8,11,6,9,9,9,9,0,0,6,6,0,14,0,13,8,732.txt
5,12,10,11,0,16,5,0,4,0,0,0,0,0,0,0,0,0,0,10,0,0,3,0,3,10,16,0,0,5,6,0,8,7,0,30,7,8,12,6,0,9,9,9,0,0,6,5,10,8,13,0,0,734.txt
5,16,8,8,0,13,4,0,4,5,0,0,5,5,9,4,0,6,0,0,6,0,3,0,3,9,10,0,0,5,6,0,8,7,0,7,7,8,12,6,14,7,9,9,0,0,6,5,4,8,0,6,0,735.txt
5,12,10,12,0,16,5,21,10,0,4,8,5,5,0,4,0,0,0,9,6,0,3,8,4,10,22,9,4,5,6,0,8,7,9,26,8,23,0,6,7,9,10,9,0,0,6,6,12,17,0,0,5,737.txt
5,12,10,11,0,17,5,0,4,5,0,0,5,5,0,0,0,0,0,0,0,0,0,0,3,9,13,0,0,5,6,6,8,7,0,14,7,8,0,6,0,9,9,9,0,0,6,5,10,8,0,0,0,738.txt
5,12,10,12,0,16,5,0,15,0,4,0,5,5,0,4,0,0,0,10,0,0,3,0,4,10,29,0,4,4,6,6,8,8,10,26,8,14,17,7,7,9,11,9,0,0,6,7,5,14,6,7,0,741.txt
4,19,12,4,4,5,3,4,3,4,0,17,4,22,11,0,0,0,0,0,9,0,3,4,7,10,26,5,8,5,6,6,8,7,8,26,8,9,25,6,13,9,8,9,0,0,6,0,9,16,0,0,8,743.txt
5,12,10,11,0,16,5,0,15,5,4,0,5,5,0,4,0,0,0,10,0,0,3,0,4,9,15,0,4,5,6,6,8,7,0,20,7,12,0,6,7,9,9,9,0,0,6,5,10,14,0,0,0,747.txt
5,12,17,14,0,7,8,0,0,9,0,0,22,0,0,0,7,23,6,4,6,4,3,0,5,11,4,0,0,5,5,9,0,7,0,6,10,21,0,6,0,0,8,11,0,0,7,5,14,0,0,6,0,748.txt
5,12,10,12,0,16,5,6,4,5,0,5,5,5,0,4,0,0,0,9,7,0,0,4,3,10,25,0,0,5,6,0,8,0,8,26,8,8,8,6,0,9,10,9,0,0,6,6,7,14,0,0,5,751.txt
5,16,10,12,5,16,5,5,15,0,15,5,5,5,9,4,9,8,0,9,9,7,4,3,3,10,30,9,9,4,6,0,8,8,17,26,8,12,17,5,25,9,7,9,7,5,6,6,15,16,5,7,7,755.txt
5,12,10,11,5,13,4,5,12,5,0,7,5,5,0,4,0,6,0,0,0,7,4,0,4,9,11,9,0,5,6,0,8,7,10,11,7,23,10,6,18,10,9,9,7,0,6,5,4,21,16,11,0,756.txt
5,16,11,9,0,13,4,6,4,5,0,5,5,5,9,4,0,0,0,0,9,0,3,4,3,9,13,0,0,5,6,0,8,7,8,9,7,8,8,6,0,10,9,9,0,0,6,5,4,8,0,6,8,760.txt
5,12,10,12,0,16,5,6,15,0,9,7,5,5,0,4,0,0,0,10,7,7,3,4,3,10,29,9,9,4,6,0,8,8,17,26,8,12,17,7,8,9,11,9,0,0,6,6,18,16,0,7,6,765.txt
5,12,10,12,5,16,5,5,15,0,15,0,9,5,0,4,0,0,0,0,0,7,3,0,3,10,29,29,4,4,6,0,8,8,10,26,8,12,17,7,7,9,11,9,7,0,6,6,0,14,7,7,0,766.txt
5,12,10,12,0,16,5,0,4,0,0,0,5,5,0,4,0,0,0,0,9,0,3,4,3,10,26,0,0,5,6,6,8,19,8,26,8,8,15,6,16,9,10,9,0,0,6,7,5,14,0,6,8,768.txt
5,12,10,11,0,13,4,6,10,0,0,7,5,5,0,0,0,6,0,0,7,0,0,4,4,9,10,9,6,5,6,6,8,7,8,10,7,23,23,6,21,10,9,9,0,0,6,5,4,16,0,0,8,771.txt
5,12,10,11,0,16,5,6,16,5,0,7,5,5,0,4,0,0,0,0,7,0,3,4,3,10,17,11,0,5,6,0,8,7,8,20,7,22,11,6,20,9,9,9,0,0,6,5,10,8,16,6,8,772.txt
5,12,10,12,0,16,5,0,4,0,4,0,5,5,0,4,0,0,0,10,6,7,3,10,3,10,30,0,4,4,6,0,8,0,0,26,8,8,17,5,7,9,7,9,0,0,6,6,0,14,5,7,0,773.txt
5,12,10,11,0,13,4,0,15,5,0,0,5,5,0,0,0,0,0,10,0,0,3,0,4,9,10,15,0,5,6,6,8,7,10,11,7,12,0,6,0,10,9,9,0,0,6,5,4,8,0,6,0,775.txt
5,12,10,11,0,16,5,0,15,5,0,0,20,0,0,0,0,6,0,0,6,0,0,0,3,10,15,0,8,5,6,0,8,7,0,28,7,13,12,6,0,9,0,9,0,0,6,5,10,8,0,0,0,777.txt
5,12,10,11,0,13,4,21,13,0,0,12,5,5,0,4,0,6,0,9,6,0,0,8,3,9,12,11,6,5,6,0,8,7,6,10,7,11,0,6,21,10,9,9,0,0,6,5,4,8,0,0,5,779.txt
5,12,10,12,0,16,5,0,4,0,0,0,5,5,0,4,0,0,0,11,6,0,3,0,3,10,27,0,8,5,6,0,8,0,0,26,8,8,12,6,29,9,11,9,0,0,6,6,0,14,0,0,0,781.txt
5,12,10,12,0,16,5,0,15,5,0,0,5,5,0,4,0,0,0,10,6,0,3,5,3,10,29,0,5,5,6,6,8,25,0,26,8,17,0,6,8,9,11,9,0,0,6,6,0,14,0,0,0,785.txt
5,12,10,12,0,16,5,6,4,0,9,0,5,5,0,4,0,0,0,9,6,0,3,8,3,10,29,0,4,5,6,0,8,14,9,26,8,8,17,7,7,9,11,9,0,0,6,6,0,14,0,7,7,787.txt
5,16,10,11,0,15,4,0,15,5,0,0,5,5,9,4,0,0,0,0,0,0,3,0,4,9,13,0,0,5,6,6,8,7,0,14,7,14,16,6,0,9,9,9,0,0,6,5,4,8,19,0,0,790.txt
5,12,10,12,0,16,5,0,15,5,0,0,5,5,0,4,0,6,0,0,6,0,3,8,4,10,17,11,0,5,6,6,8,7,9,27,7,22,0,6,0,9,9,9,0,0,6,7,5,14,16,11,8,792.txt
5,12,10,11,0,14,4,0,15,0,0,0,5,5,0,0,0,6,0,10,6,0,0,0,3,9,12,0,0,5,6,6,8,7,0,13,7,17,0,6,0,10,9,9,0,0,6,5,4,8,0,0,0,796.txt
5,12,10,12,0,16,5,6,4,0,0,0,5,5,0,4,0,0,0,10,6,0,0,0,3,10,17,0,0,5,6,0,8,7,0,26,8,8,11,6,0,9,9,9,0,0,6,6,0,14,0,0,0,800.txt
5,12,10,12,0,16,5,0,4,0,0,0,5,5,0,4,0,0,0,0,6,0,3,0,3,10,26,0,0,5,6,0,8,20,16,26,8,8,0,6,0,9,10,9,0,0,6,6,0,14,0,6,0,802.txt
5,16,18,14,0,19,8,0,0,5,0,0,11,5,9,5,0,16,6,5,0,6,3,0,5,11,4,11,0,5,0,5,0,7,6,6,10,0,12,6,0,0,9,11,0,0,7,5,14,0,8,12,0,806.txt
5,12,10,12,0,16,5,6,15,0,0,0,5,5,0,4,0,0,0,0,6,7,3,0,3,10,29,0,12,5,6,6,8,8,0,26,8,13,11,6,8,9,11,9,0,0,6,7,5,14,0,13,0,807.txt
5,12,10,12,0,16,5,0,15,5,0,0,5,5,0,4,0,0,0,0,0,0,3,0,3,10,17,0,0,5,6,6,8,7,27,25,7,17,0,6,0,9,9,9,0,0,6,7,5,14,0,0,0,810.txt
5,12,10,12,0,16,5,0,4,5,9,0,5,5,0,4,0,0,0,0,6,0,3,0,4,10,29,0,9,4,6,6,8,0,10,26,8,8,17,7,8,9,11,9,0,0,6,8,5,14,0,7,0,813.txt
5,16,10,12,5,16,5,5,16,5,4,7,19,5,9,4,9,0,0,10,0,0,3,0,4,10,29,9,4,12,6,0,8,8,6,26,8,26,11,0,7,9,10,9,7,0,6,6,0,21,7,7,0,816.txt
5,12,10,12,0,16,5,0,15,0,4,0,5,5,0,4,0,0,0,10,0,5,3,10,3,10,30,12,4,4,6,6,8,8,17,26,8,14,17,5,7,9,7,9,0,0,6,7,16,14,5,7,0,817.txt
5,12,10,12,0,16,5,6,15,0,9,5,5,5,0,4,0,0,0,11,6,7,3,0,3,10,29,14,12,5,6,6,8,8,24,26,8,12,8,6,8,9,11,9,0,0,6,7,5,14,0,7,0,818.txt
0,0,10,12,5,16,5,5,12,0,13,8,9,5,0,4,0,0,0,0,0,5,3,10,4,10,30,11,9,4,6,7,8,8,10,26,8,11,20,5,8,9,7,9,7,0,6,13,11,14,14,7,0,821.txt
5,12,10,11,0,16,5,0,15,0,0,0,17,0,0,0,0,6,0,10,0,0,3,0,4,9,15,29,0,5,6,6,8,7,0,28,7,12,0,6,0,9,9,9,0,0,6,5,10,8,0,0,0,824.txt
6,8,10,12,0,16,5,0,4,0,0,0,5,5,0,4,0,0,0,10,6,0,3,0,3,10,25,0,4,5,6,0,8,7,6,26,8,8,0,6,7,9,10,9,0,0,6,6,0,14,0,6,0,827.txt
5,16,10,12,0,16,5,0,4,5,0,0,5,5,9,4,9,6,0,0,8,0,3,8,3,10,17,0,0,5,6,0,8,19,6,20,8,20,0,6,0,9,9,9,0,0,6,6,0,14,0,6,8,831.txt
5,12,10,12,0,16,5,0,4,0,9,0,5,5,0,4,0,0,0,0,6,0,3,0,3,10,29,0,9,5,6,0,8,0,0,26,8,8,17,7,8,9,11,9,0,0,6,6,0,14,0,7,0,832.txt
5,12,10,12,0,16,5,0,15,5,0,0,15,0,0,8,0,0,0,9,6,0,3,8,3,10,27,0,0,5,6,0,8,10,9,26,8,17,0,6,10,9,11,9,0,0,6,9,0,14,0,0,9,834.txt
5,12,10,12,0,16,5,0,4,5,4,0,5,5,0,4,0,0,0,0,6,0,3,0,3,10,17,0,4,5,6,0,8,7,14,25,7,8,12,6,7,9,9,9,0,0,6,6,0,14,15,6,0,836.txt
5,12,10,12,0,16,5,0,15,5,0,0,5,5,0,4,0,0,0,10,6,0,3,0,3,10,27,18,0,5,6,6,8,8,6,26,8,12,0,6,12,9,10,9,0,0,6,7,5,14,0,0,0,839.txt
5,16,10,12,0,16,5,0,15,0,0,0,5,5,9,4,0,0,0,0,7,0,3,4,3,10,17,0,0,5,6,0,8,8,6,20,8,14,0,6,0,9,9,9,0,0,6,6,0,14,0,6,6,842.txt
5,12,10,12,0,16,5,0,4,0,4,0,5,5,0,4,0,0,0,9,8,0,3,8,3,10,29,0,4,5,6,6,8,20,8,26,8,8,17,7,7,9,11,9,0,0,6,7,5,14,0,7,7,847.txt
5,12,10,12,0,16,5,6,4,0,4,5,5,8,0,4,0,0,0,0,6,0,3,10,3,10,30,12,4,9,6,0,8,8,0,26,8,19,17,7,7,9,7,9,0,0,6,6,7,14,0,7,0,851.txt
5,12,20,14,0,7,4,21,0,0,0,8,7,5,0,4,0,16,6,10,6,0,3,8,5,11,0,9,0,5,0,5,11,7,9,7,10,0,0,6,0,0,9,11,0,0,7,5,14,0,0,0,8,852.txt
5,12,10,12,0,16,5,0,15,5,0,0,5,5,0,4,0,0,0,10,0,0,3,0,3,10,29,29,9,5,6,6,8,8,0,26,8,12,0,9,8,9,11,9,0,0,6,6,0,14,0,7,0,855.txt
5,12,10,11,0,17,5,6,15,5,0,5,12,0,0,0,0,6,0,0,7,0,3,4,3,9,13,0,0,5,6,0,8,7,8,28,7,12,8,6,0,9,9,9,0,0,6,5,10,8,22,6,8,857.txt
5,12,10,12,0,16,5,6,4,5,4,5,5,5,0,4,0,0,0,0,7,0,3,4,3,10,29,0,4,4,6,0,8,0,8,26,8,8,17,7,7,9,11,9,0,0,6,6,7,14,0,7,6,859.txt
5,12,10,11,0,16,5,0,15,5,0,0,5,5,0,4,0,0,0,0,6,0,3,0,4,9,15,0,0,5,6,6,8,7,11,19,7,17,0,6,0,9,9,9,0,0,6,5,10,8,0,6,0,861.txt
5,12,10,12,0,16,5,6,23,0,4,7,5,4,0,4,0,0,0,0,7,0,3,10,4,10,29,9,4,4,6,0,8,8,8,26,8,10,17,7,7,9,12,9,0,0,6,6,18,16,6,7,6,864.txt
6,8,8,8,0,13,4,0,15,0,0,0,17,0,0,0,0,19,0,0,6,0,3,0,3,9,6,11,0,5,0,6,8,7,0,7,10,0,0,6,0,11,8,11,0,0,6,5,13,0,0,11,0,866.txt
5,12,8,8,0,13,4,0,4,5,0,0,5,5,0,4,0,6,0,13,6,0,0,0,3,9,8,0,0,5,0,0,8,7,6,7,7,8,16,6,0,7,9,9,0,0,6,5,6,8,0,0,0,868.txt
5,12,10,12,0,16,5,0,4,0,4,0,5,5,0,4,0,0,0,0,0,5,3,10,3,10,30,0,4,4,6,0,8,0,0,26,8,8,17,7,7,9,7,9,0,0,6,6,0,14,5,7,0,870.txt
5,12,10,11,0,17,6,7,15,0,0,0,5,5,0,4,0,0,0,0,6,0,3,0,4,9,13,16,0,5,6,6,8,7,0,17,7,12,11,6,0,9,9,9,0,0,6,5,4,8,0,0,0,872.txt
4,14,4,4,4,5,3,4,3,4,0,17,4,3,5,4,0,6,0,10,0,0,3,0,7,10,27,5,0,5,6,6,8,8,0,26,8,9,13,6,0,9,11,10,0,0,6,7,5,4,0,0,0,874.txt
5,12,10,12,0,16,5,0,4,5,9,0,5,5,0,4,0,0,0,0,8,0,3,8,3,10,29,0,9,5,6,6,8,0,8,26,8,8,17,7,8,9,11,9,0,0,6,7,5,14,0,7,6,879.txt
5,12,10,12,0,16,5,0,4,0,5,0,5,5,0,4,0,0,0,0,0,0,3,0,3,10,29,0,9,5,6,6,8,20,17,26,8,8,17,7,8,9,11,9,0,0,6,6,0,14,0,7,0,882.txt
5,12,10,12,0,16,5,5,5,0,9,8,5,4,0,4,0,8,0,0,6,0,3,0,4,10,29,25,9,8,6,6,8,8,17,26,8,9,21,7,8,9,11,9,0,0,6,6,12,21,10,7,0,884.txt
5,12,10,12,0,16,5,6,15,0,0,7,5,5,0,4,0,0,0,0,6,0,3,0,3,10,27,0,0,5,6,0,8,8,0,26,8,17,11,6,8,9,10,9,0,0,6,6,0,14,0,0,0,885.txt
5,12,10,12,0,16,5,0,15,0,9,0,5,5,0,4,0,0,0,0,6,0,3,0,3,10,29,0,4,4,6,0,8,8,0,26,8,14,17,7,7,9,11,9,0,0,6,6,0,14,0,7,0,886.txt
5,12,10,11,0,16,5,0,15,0,0,0,5,5,0,4,0,7,0,0,6,0,3,0,3,9,17,0,0,5,6,0,8,7,0,20,7,14,0,6,0,9,9,9,0,0,6,5,10,14,0,6,0,889.txt
5,12,10,12,0,16,5,5,12,0,9,11,5,5,0,4,0,0,0,9,7,0,3,3,4,10,29,11,9,4,6,6,8,8,8,26,8,11,20,7,10,9,7,9,0,0,6,7,5,14,15,7,7,891.txt
5,12,10,11,0,17,5,0,4,0,0,0,5,5,0,4,0,9,0,0,0,0,3,0,3,9,15,0,0,5,6,0,8,7,0,19,7,8,0,6,0,9,9,9,0,0,6,5,10,8,0,6,0,893.txt
5,12,10,12,0,16,5,6,10,0,0,7,5,8,0,4,0,6,0,0,6,0,0,8,3,10,20,9,0,5,6,0,8,8,9,26,8,23,11,6,0,9,9,9,0,0,6,6,0,17,0,0,8,896.txt
5,16,10,11,0,14,4,0,15,5,0,0,5,5,0,4,0,6,0,0,6,0,3,0,3,9,12,13,0,5,6,6,8,7,0,12,7,12,0,6,0,10,9,9,0,0,6,5,4,8,0,0,0,900.txt
5,12,10,11,0,14,4,0,4,0,0,0,5,5,0,4,0,0,0,0,0,0,3,0,3,9,13,0,0,5,6,0,8,7,0,13,7,8,0,6,0,10,9,9,0,0,6,5,4,8,0,0,0,902.txt
4,26,15,4,4,5,7,4,3,10,17,17,4,14,10,9,10,24,9,3,4,13,2,17,13,21,3,3,3,3,4,4,5,5,5,4,6,6,6,10,26,13,11,9,0,5,6,7,5,16,17,7,7,905.txt
5,12,10,12,0,16,5,0,15,0,0,0,5,5,0,4,0,0,0,0,6,0,3,0,3,10,27,15,0,5,6,6,8,8,7,26,8,12,0,6,8,9,10,9,0,0,6,7,5,14,0,0,0,907.txt
5,12,10,12,0,16,5,0,4,0,4,0,5,5,0,4,0,0,0,10,6,5,3,0,3,10,29,0,4,4,6,0,8,0,0,26,8,8,17,7,7,9,11,9,0,0,6,6,0,14,0,7,0,909.txt
5,12,10,12,0,16,5,6,15,0,0,0,5,5,0,4,0,6,0,0,6,0,3,0,3,10,17,9,0,5,6,0,8,7,0,25,7,12,11,6,0,9,9,9,0,0,6,6,0,18,0,6,0,911.txt
5,12,10,12,0,16,5,0,4,0,4,0,5,5,0,4,0,0,0,0,0,5,3,3,3,10,29,0,4,4,6,0,8,0,0,26,8,8,17,7,7,9,7,9,0,0,6,6,0,14,0,7,0,914.txt
5,16,8,7,0,12,4,6,15,5,0,5,5,5,9,4,9,6,0,24,0,7,0,0,0,23,8,0,0,5,0,6,7,14,6,7,7,7,8,6,0,11,9,9,0,0,6,5,4,6,0,0,0,917.txt
5,16,10,11,0,13,4,0,15,0,0,0,5,5,9,4,0,0,0,0,9,0,3,4,3,9,15,29,0,5,6,0,8,7,19,11,7,12,0,6,20,10,9,9,0,0,6,5,4,8,0,6,8,922.txt
5,12,10,12,0,16,5,0,15,5,0,0,17,0,0,0,0,0,0,10,6,0,3,0,3,10,27,0,8,5,6,0,8,8,6,26,8,25,0,6,22,9,10,9,0,0,6,10,0,14,0,0,0,924.txt
5,12,10,12,0,16,5,0,4,5,0,0,5,5,0,4,0,0,0,0,0,0,3,0,3,10,27,0,0,5,6,6,8,0,0,26,8,8,0,6,0,9,10,9,0,0,6,7,5,14,0,6,0,925.txt
5,12,10,11,0,17,5,0,15,0,0,0,5,5,0,4,0,12,0,10,6,0,3,0,3,9,15,29,0,5,6,0,8,7,0,20,7,12,0,6,0,9,9,9,0,0,6,5,10,14,0,0,0,926.txt
5,16,8,8,0,13,4,0,15,5,0,0,5,5,9,4,0,6,0,0,6,0,3,0,8,8,8,0,0,5,0,0,8,7,0,7,7,14,0,6,0,7,9,9,0,0,6,5,4,8,0,6,0,928.txt
5,12,10,11,0,17,4,0,4,5,0,0,5,5,0,4,0,8,0,10,6,0,3,0,3,9,13,0,6,5,6,0,8,7,0,16,7,8,0,6,21,9,9,9,0,0,6,5,4,8,0,6,0,930.txt
5,12,10,12,0,16,5,0,16,0,0,0,5,5,0,4,0,0,0,0,0,0,3,0,3,10,29,11,5,5,6,0,8,8,24,26,8,22,0,6,8,9,11,9,0,0,6,6,0,14,12,13,0,932.txt
4,6,4,4,4,5,3,4,3,4,0,17,4,3,5,4,9,0,0,10,0,7,3,0,3,10,4,9,9,5,6,6,8,8,6,26,8,12,8,6,20,9,10,9,0,5,6,7,5,4,16,7,0,935.txt
6,18,8,8,0,13,4,0,15,0,0,0,17,0,0,0,0,6,0,10,6,0,3,5,3,9,8,18,0,5,0,0,8,7,0,7,10,12,0,6,0,7,8,11,0,0,6,5,6,8,0,0,0,940.txt
5,12,10,12,0,16,5,0,4,5,0,0,5,5,0,4,0,0,0,10,6,0,3,8,3,10,26,0,4,5,6,0,8,7,9,26,8,8,0,6,7,9,10,9,0,0,6,6,0,14,0,6,8,942.txt
5,16,10,12,0,16,5,6,4,0,0,5,5,5,9,4,9,6,0,0,9,7,3,4,3,10,29,0,12,5,6,1,1,0,1,26,8,20,8,1,2,1,10,9,1,1,6,6,1,14,0,1,1,944.txt
5,12,10,12,0,16,5,0,4,5,0,0,5,5,0,4,0,0,0,10,6,0,3,0,3,10,17,0,0,5,6,0,8,7,0,26,8,8,0,6,20,9,9,9,0,0,6,6,0,14,0,0,0,946.txt
5,12,10,12,0,16,5,0,15,0,0,0,5,5,0,4,0,0,0,10,6,0,3,0,3,10,17,18,4,5,6,0,8,7,11,20,7,12,0,6,7,9,9,9,0,0,6,6,0,14,0,6,0,949.txt
5,12,10,12,0,16,5,5,15,5,9,0,5,5,0,4,0,0,0,0,0,5,3,10,3,10,30,0,4,4,6,0,8,8,10,26,8,17,17,5,7,9,7,9,0,0,6,6,0,14,20,7,0,951.txt
5,12,10,11,0,14,4,21,12,0,0,8,5,8,0,4,0,6,0,0,7,0,3,8,4,9,13,11,0,5,6,6,8,7,8,12,7,23,0,6,0,10,9,9,0,0,6,5,4,8,0,6,8,954.txt
5,12,10,12,0,16,5,0,4,0,9,0,5,5,0,4,0,0,0,0,0,15,3,0,3,10,29,0,9,5,6,0,8,0,16,26,8,8,0,6,8,9,11,9,0,0,6,6,0,14,0,7,0,956.txt
5,16,10,11,0,14,4,0,4,5,0,0,5,5,0,4,0,0,0,10,0,0,3,0,3,9,13,0,8,5,6,0,8,7,0,12,7,8,0,6,9,10,9,9,0,0,6,5,4,8,0,13,0,959.txt
5,12,10,11,0,16,5,14,16,0,0,0,5,5,0,0,0,0,0,10,0,0,3,0,3,10,15,11,0,5,6,0,8,7,0,30,7,22,0,6,20,9,9,9,0,0,6,5,10,8,0,0,0,961.txt
5,12,10,12,0,16,5,0,4,5,0,0,5,5,0,4,0,0,0,10,0,0,3,0,3,10,27,0,4,5,6,6,8,0,0,26,8,8,0,6,7,9,10,9,0,0,6,6,0,14,0,6,0,962.txt
5,12,10,12,0,16,5,21,10,0,9,8,5,8,0,4,0,0,0,9,6,0,0,8,3,10,29,5,4,5,6,6,8,8,8,26,8,23,21,7,7,9,11,9,0,0,6,7,5,16,0,7,7,964.txt
5,12,10,12,0,16,5,6,15,0,0,7,5,8,0,4,0,0,0,0,6,7,3,5,4,10,29,15,12,5,6,6,8,8,22,26,8,12,11,6,8,9,10,9,0,0,6,7,5,14,0,7,0,966.txt
5,12,10,12,0,16,5,6,15,5,0,7,5,5,0,4,0,0,0,0,6,0,3,0,4,10,29,0,12,5,6,6,8,8,10,26,8,14,11,6,8,9,11,9,0,0,6,8,5,14,0,7,0,968.txt
5,12,10,12,0,16,5,0,4,0,9,0,5,5,0,4,0,0,0,10,0,0,3,10,3,10,30,0,9,4,6,0,8,0,0,26,8,8,17,7,8,9,7,9,0,0,6,6,0,14,0,7,0,970.txt
5,12,10,12,0,16,5,0,4,0,4,0,5,5,0,4,0,0,0,9,6,0,4,3,3,10,29,0,4,4,6,6,8,19,10,26,8,8,17,7,7,9,7,9,0,0,6,8,5,14,0,7,7,974.txt
5,12,10,12,0,16,5,0,4,0,4,0,5,5,0,0,0,0,0,10,6,0,3,0,3,10,17,0,4,5,6,0,8,7,0,26,7,8,0,6,7,9,9,9,0,0,6,6,0,14,0,0,0,975.txt
5,12,10,12,0,16,5,6,12,0,0,5,5,5,0,4,0,0,0,10,6,7,3,0,3,10,21,9,8,5,6,0,8,7,6,26,8,23,8,6,0,9,9,9,0,0,6,6,7,21,0,13,0,979.txt
5,12,10,12,5,16,5,5,15,0,0,0,17,9,0,0,0,0,0,0,6,3,3,0,4,10,17,9,8,5,6,0,8,7,6,26,8,12,0,6,9,9,8,14,7,0,6,12,19,18,7,13,0,981.txt
5,12,10,11,0,21,4,6,15,5,0,7,5,5,0,4,0,0,0,0,6,0,3,8,3,9,13,0,0,5,6,6,8,7,9,14,7,17,11,6,0,9,9,9,0,0,6,5,4,8,0,6,8,987.txt
5,12,10,12,0,16,5,6,10,0,4,7,10,0,0,8,0,0,0,10,6,0,3,7,4,10,30,9,4,4,6,0,8,8,21,26,8,23,17,7,7,9,7,9,0,0,6,10,19,19,12,7,0,989.txt
6,8,10,12,0,16,5,0,4,5,0,0,5,5,8,4,9,6,7,0,0,7,3,0,3,10,4,0,0,5,6,0,8,7,0,25,7,8,0,6,0,9,9,9,0,0,6,5,10,14,0,6,0,994.txt
5,12,10,12,0,16,5,6,4,0,9,5,5,5,0,4,0,0,0,0,6,0,3,0,3,10,29,0,4,5,6,6,8,12,10,26,8,8,17,7,7,9,11,9,0,0,6,7,5,14,0,7,0,996.txt
5,12,10,11,0,16,5,0,15,5,0,0,5,5,0,4,0,0,0,0,7,0,3,4,3,10,15,16,0,5,6,0,8,7,8,19,7,12,25,6,30,9,9,9,0,0,6,5,10,8,0,0,8,998.txt
5,12,10,12,0,16,5,0,15,5,9,0,5,5,0,4,0,0,0,0,7,0,3,4,4,10,29,0,4,5,6,6,8,8,17,26,8,16,17,7,7,9,11,9,0,0,6,7,5,14,0,7,6,1002.txt
5,12,10,12,0,16,5,6,4,5,9,5,5,5,0,4,0,0,0,0,6,5,3,19,3,10,29,0,4,4,6,0,8,0,9,26,8,8,17,7,7,9,7,9,0,0,6,6,7,14,0,7,6,1005.txt
5,12,10,12,0,16,5,0,4,5,0,0,5,5,0,4,0,0,0,9,6,0,3,5,3,10,25,0,4,5,6,0,8,0,0,26,8,8,12,6,7,9,10,9,0,0,6,6,0,14,0,6,5,1008.txt
5,12,10,11,5,16,5,5,15,5,0,0,5,5,0,4,0,0,0,10,6,0,3,0,3,10,17,0,0,5,6,0,8,7,6,20,7,13,0,6,9,9,9,9,7,0,6,5,10,14,16,11,0,1010.txt
5,12,10,12,0,16,5,0,4,5,0,0,5,5,0,4,0,0,0,9,9,0,3,4,3,10,17,0,0,5,6,0,8,7,6,26,8,8,0,6,9,9,9,9,0,0,6,6,0,14,0,0,5,1013.txt
5,12,10,12,0,16,5,0,15,0,0,0,5,5,0,4,0,0,0,0,0,0,3,0,3,10,27,14,0,5,6,6,8,8,6,26,8,12,0,6,0,9,10,9,0,0,6,7,5,14,0,0,0,1015.txt
5,12,10,12,0,16,5,5,15,0,0,5,5,5,0,4,0,0,0,9,7,0,4,4,4,10,23,0,4,5,6,6,8,15,6,26,8,17,8,6,7,9,10,9,7,0,6,8,5,14,7,0,5,1018.txt
4,6,4,18,8,5,13,4,3,14,9,4,4,3,5,4,9,0,0,0,6,0,3,3,15,10,30,5,9,4,6,0,8,6,17,26,8,9,12,0,8,9,12,9,7,5,6,6,9,15,21,7,0,1020.txt
5,12,10,12,5,16,5,5,15,5,4,0,10,0,0,8,0,8,0,0,6,3,3,7,3,10,30,9,4,4,6,0,8,8,30,26,8,22,17,5,7,9,7,9,7,0,6,12,0,21,20,7,0,1022.txt
5,12,10,12,0,16,5,6,15,0,4,5,5,5,0,4,0,0,0,0,7,7,3,4,3,10,29,0,4,9,6,0,8,10,8,26,8,17,21,7,7,9,11,9,0,0,6,6,7,14,0,7,6,1025.txt
6,8,10,12,0,16,5,0,4,5,9,0,5,5,0,4,0,0,0,0,0,0,3,0,3,10,29,0,9,4,6,0,8,0,17,26,8,8,22,7,8,9,11,9,0,0,6,6,0,14,15,7,0,1027.txt
5,12,10,12,0,16,5,0,15,5,4,0,5,5,0,4,0,13,0,10,6,5,3,10,4,10,30,0,4,4,6,16,8,8,17,26,8,14,17,5,7,9,7,9,0,0,6,8,11,14,14,7,0,1030.txt
5,12,10,12,0,16,5,0,4,0,0,0,5,5,0,4,0,0,0,9,6,0,0,8,3,10,29,0,9,5,6,6,8,8,17,26,8,19,0,6,10,9,10,9,0,0,6,7,5,14,0,7,5,1036.txt
5,12,10,12,0,16,5,0,4,0,9,0,5,5,0,4,0,0,0,10,6,0,3,0,3,10,29,0,4,4,6,0,8,20,0,26,8,8,17,7,7,9,11,9,0,0,6,6,0,14,0,7,0,1041.txt
5,12,10,12,0,16,5,6,15,0,9,5,5,5,0,4,0,6,0,9,7,0,0,4,3,10,29,0,4,5,6,0,8,10,17,26,8,20,21,7,7,9,11,9,0,0,6,6,7,14,0,7,7,1043.txt
5,12,10,12,0,16,5,5,15,0,4,7,5,5,0,4,0,0,0,0,6,0,3,0,3,10,29,0,4,5,6,6,8,8,10,26,8,12,17,7,7,9,11,9,0,0,6,7,5,14,10,7,0,1045.txt
5,12,10,12,0,16,5,0,4,5,0,0,5,5,0,4,0,0,0,0,0,0,3,0,3,10,22,0,0,5,6,6,8,0,6,26,8,8,0,6,9,9,9,9,0,0,6,7,5,14,0,6,0,1046.txt
5,12,10,12,0,16,5,0,4,5,0,0,5,5,0,4,0,6,0,0,0,7,3,0,3,10,27,0,0,5,6,6,8,0,6,26,8,8,0,6,8,9,10,9,0,0,6,7,5,14,8,6,0,1048.txt
5,12,10,12,0,16,5,6,4,5,0,5,5,5,0,4,0,0,0,9,6,7,0,0,3,10,29,0,9,5,6,0,8,0,17,26,8,8,8,6,10,9,11,9,0,0,6,6,7,14,0,7,7,1051.txt
5,12,10,12,0,16,5,7,15,5,0,0,5,5,0,4,0,0,0,0,6,0,3,0,3,10,25,0,0,5,6,0,8,8,0,26,8,13,11,6,9,9,10,9,0,0,6,6,0,14,0,0,0,1054.txt
5,12,10,12,0,16,5,6,15,5,0,5,5,5,0,4,0,0,0,10,9,0,3,4,3,10,27,16,0,5,6,6,8,10,6,26,8,12,8,6,2,9,16,12,1,1,1,2,1,14,4,4,4,1057.txt
5,12,10,12,0,16,5,0,16,0,9,0,5,5,0,4,0,0,0,11,6,0,0,0,3,10,29,11,9,5,6,0,8,8,0,26,8,22,0,6,8,9,11,9,0,0,6,6,0,14,0,7,0,1059.txt
5,12,10,12,0,16,5,0,4,0,9,0,5,5,0,4,0,0,0,0,0,0,3,0,3,10,29,0,9,4,6,0,8,19,0,26,8,8,17,7,8,9,11,9,0,0,6,6,0,14,0,7,0,1060.txt
5,12,10,12,0,16,5,0,4,0,0,0,5,5,0,4,0,0,0,0,0,0,3,0,3,10,27,0,0,5,6,6,8,19,22,26,8,8,0,6,8,9,10,9,0,0,6,7,5,14,0,6,0,1064.txt
5,12,10,12,0,16,5,0,4,0,4,0,5,5,0,4,0,0,0,0,9,0,3,4,3,10,27,0,4,5,6,0,8,20,8,26,8,8,0,6,7,9,10,9,0,0,6,6,0,14,0,6,8,1069.txt
5,12,10,12,0,16,5,0,4,0,9,0,5,5,0,4,0,0,0,10,6,7,3,10,3,10,30,0,9,4,6,0,8,0,17,26,8,8,17,7,8,9,7,9,0,0,6,6,0,14,5,7,0,1071.txt
5,12,10,12,0,16,5,0,4,0,0,0,5,5,0,4,0,0,0,9,7,0,3,4,3,10,28,0,4,5,6,0,8,0,23,26,8,8,12,6,7,9,11,9,0,0,6,6,0,14,0,0,5,1073.txt
5,12,10,12,0,16,5,0,9,5,4,0,10,12,0,8,0,0,0,10,6,3,3,7,4,10,30,0,4,4,6,6,8,20,30,26,8,13,20,5,7,9,7,9,8,0,6,11,11,14,14,7,6,1075.txt
5,12,10,12,0,16,5,0,15,0,0,0,5,5,0,4,0,0,0,10,7,0,3,4,3,10,29,29,12,5,6,6,8,8,8,26,8,12,0,6,8,9,11,9,0,0,6,7,5,14,0,7,6,1076.txt
5,12,10,12,0,16,5,0,15,0,0,0,5,5,0,4,0,0,0,0,6,0,3,0,3,10,21,0,0,5,6,6,8,7,0,26,8,17,0,6,0,9,9,9,0,0,6,7,5,14,0,6,0,1078.txt
5,12,10,12,0,16,5,0,4,0,0,0,5,5,0,4,0,0,0,0,7,0,3,4,3,10,19,0,4,5,6,0,8,7,8,26,8,20,12,6,7,9,9,9,0,0,6,6,0,14,0,6,8,1080.txt
5,12,10,12,0,16,5,6,15,0,9,5,5,8,0,4,0,0,0,10,6,7,0,10,4,10,30,9,4,6,6,6,8,8,17,26,8,22,17,5,7,9,7,9,0,0,6,7,11,15,5,7,0,1082.txt
5,12,10,12,0,16,5,0,4,0,4,0,10,0,0,8,0,0,0,0,0,0,3,7,3,10,30,0,4,4,6,0,8,0,0,26,8,8,17,7,7,9,7,9,0,0,6,12,0,14,5,7,0,1084.txt
5,12,10,11,0,17,5,21,10,0,0,8,5,5,0,4,0,0,0,0,6,0,3,0,3,9,13,9,0,5,6,0,8,7,6,17,7,23,12,6,12,9,9,9,0,0,6,5,10,21,22,0,0,1086.txt
5,12,10,12,0,16,5,6,4,0,9,7,5,5,0,4,0,6,0,0,6,5,3,10,4,10,30,0,4,4,6,6,8,8,0,26,8,8,17,5,7,9,7,9,0,0,6,7,11,14,14,7,0,1088.txt
5,16,10,12,0,16,5,0,15,0,0,0,5,5,9,4,9,0,0,0,0,0,3,0,4,10,27,0,12,5,6,6,8,10,6,26,8,17,0,6,24,9,9,9,0,0,6,7,5,14,0,7,0,1090.txt
5,12,8,8,0,13,4,0,15,0,0,0,17,0,0,0,0,16,0,0,0,0,3,0,4,9,7,13,0,5,0,6,8,7,0,7,10,0,0,6,0,11,0,11,0,0,6,5,13,8,22,0,0,1093.txt
5,12,10,11,0,16,5,0,4,5,0,0,5,5,0,4,0,0,0,0,6,0,3,12,4,9,15,0,0,5,6,6,8,7,0,20,7,8,0,6,14,9,9,9,0,0,6,5,10,8,0,0,0,1094.txt
5,12,10,11,0,13,4,21,10,5,0,8,16,0,0,0,0,6,0,10,0,3,0,0,4,9,10,11,0,5,6,0,8,7,0,12,7,23,12,6,0,10,9,9,0,0,6,5,6,8,0,0,0,1096.txt
5,12,10,12,0,16,5,0,4,5,0,0,5,5,0,4,0,0,0,0,6,0,3,0,3,10,17,0,0,5,6,6,8,0,26,26,8,8,0,6,0,9,9,9,0,0,6,7,5,14,0,6,0,1101.txt
5,12,10,12,0,16,5,6,4,0,0,7,5,5,0,4,0,0,0,0,6,0,3,8,3,10,24,0,0,5,6,6,8,7,6,26,8,19,11,6,0,9,10,9,0,0,6,7,5,14,0,6,8,1105.txt
5,12,10,12,0,16,5,0,15,5,4,0,5,5,0,8,0,0,0,10,6,0,3,0,3,10,29,0,4,5,6,0,8,8,24,26,8,24,17,7,7,9,11,9,0,0,6,6,0,14,0,7,0,1106.txt
5,16,10,12,5,16,5,5,5,0,15,5,5,5,9,4,9,10,0,9,6,0,4,0,4,10,29,8,9,4,6,6,8,8,17,26,8,9,17,5,10,9,11,9,7,5,6,6,7,21,5,7,7,1108.txt
5,12,10,11,0,17,5,0,4,5,0,0,0,0,0,0,0,0,0,0,0,0,0,0,3,9,13,0,0,5,6,0,8,7,0,14,7,8,12,6,17,9,9,9,0,0,6,5,10,8,8,0,0,1109.txt
5,12,10,12,0,16,5,6,4,5,0,7,5,5,0,4,0,0,0,0,6,0,3,0,3,10,26,0,0,5,6,6,8,0,0,26,8,8,11,6,14,9,9,9,0,0,6,7,5,14,0,6,0,1114.txt
5,12,10,11,0,17,5,0,15,0,0,0,5,8,0,4,0,6,0,9,6,7,3,0,3,9,13,18,0,5,6,0,8,7,6,28,7,12,0,6,0,9,9,9,0,0,6,5,10,8,0,0,5,1117.txt
0,18,10,12,0,16,5,0,4,0,4,0,26,0,0,8,0,0,0,10,6,0,3,0,3,10,27,0,4,5,6,6,8,13,0,26,8,8,0,6,7,9,14,9,0,0,6,11,0,14,0,0,0,1118.txt
5,12,10,12,0,16,5,0,4,0,0,0,5,5,0,0,0,0,0,0,6,0,3,0,3,10,17,0,0,5,6,0,8,7,6,21,7,8,12,6,9,9,9,9,0,0,6,6,10,14,19,9,0,1121.txt
5,12,8,7,0,13,4,0,4,0,0,0,7,5,0,4,0,16,0,9,6,0,3,8,5,6,6,0,0,5,0,0,8,7,9,7,10,0,0,6,0,7,9,11,0,0,6,5,13,0,0,6,5,1122.txt
5,12,10,12,0,16,5,0,4,5,9,0,5,5,0,4,0,0,0,10,6,0,3,10,3,10,30,0,9,4,6,0,8,19,0,26,8,8,17,7,8,9,7,9,0,0,6,6,0,14,0,7,0,1124.txt
5,12,10,12,0,16,5,0,15,5,9,0,5,5,0,4,0,0,0,10,6,0,3,0,3,10,29,14,9,5,6,0,8,8,27,26,8,12,17,7,8,9,11,9,0,0,6,6,0,14,0,7,0,1126.txt
5,12,10,12,5,16,5,5,12,0,15,8,9,5,0,4,0,0,0,0,6,7,3,10,4,10,29,11,9,4,6,0,8,8,17,26,8,23,17,7,8,9,7,9,7,0,6,6,12,14,7,7,0,1128.txt
5,12,10,11,0,16,5,0,15,0,0,0,5,5,0,4,0,0,0,11,6,0,0,0,3,10,17,0,0,5,6,0,8,7,0,20,7,17,0,6,0,9,9,9,0,0,6,5,10,14,0,0,0,1130.txt
5,12,10,12,0,16,5,0,15,0,0,0,5,5,0,4,0,0,0,0,0,0,3,0,3,10,29,0,5,5,6,6,8,8,27,26,8,12,0,6,8,9,11,9,0,0,6,6,0,14,0,13,0,1135.txt
5,12,10,12,0,16,5,21,12,5,0,8,5,5,0,4,0,0,0,0,0,0,3,0,3,10,27,11,4,5,6,0,8,8,0,26,8,23,0,6,7,9,10,9,0,0,6,6,0,14,0,13,0,1136.txt
5,12,10,11,0,16,5,6,15,0,0,5,12,0,0,0,0,6,0,0,9,0,3,4,3,10,17,0,0,5,6,0,8,7,8,30,7,14,8,6,0,9,9,9,0,0,6,5,10,8,15,6,8,1137.txt
5,12,10,12,0,16,5,6,15,5,4,0,5,5,0,4,0,0,0,9,6,0,3,5,3,10,27,0,4,5,6,0,8,8,10,26,8,14,11,6,7,9,10,9,0,0,6,6,0,14,0,7,5,1139.txt
5,16,10,12,0,16,5,21,22,0,0,8,5,5,9,4,0,6,0,10,6,0,3,0,4,10,26,10,4,5,6,6,8,8,0,26,8,10,0,6,7,9,9,9,0,0,6,7,5,14,0,6,0,1141.txt
4,6,12,20,4,5,9,4,3,14,0,17,4,25,11,4,0,10,0,0,7,7,4,4,4,10,27,8,5,5,6,0,8,8,6,26,8,9,8,9,8,9,10,9,7,0,6,6,7,16,16,11,6,1143.txt
5,12,10,12,0,16,5,0,4,0,9,0,5,5,0,4,0,0,0,0,6,0,3,8,4,10,29,0,9,4,6,6,8,8,9,26,8,18,20,7,8,9,11,9,0,0,6,8,5,14,0,7,6,1147.txt
5,12,10,12,0,16,5,0,15,0,4,0,5,5,0,4,0,0,0,0,0,0,3,0,4,10,29,0,4,5,6,15,8,8,10,26,8,17,20,7,7,9,11,9,0,0,6,13,5,14,18,7,0,1149.txt
5,12,10,12,0,16,5,21,10,5,0,8,16,0,0,0,0,0,0,0,0,3,0,0,3,10,26,11,8,5,6,0,8,7,6,26,8,11,0,6,0,9,10,9,0,0,6,12,0,14,8,0,0,1151.txt
5,12,10,12,0,16,5,0,4,5,0,0,12,11,0,0,0,0,0,9,9,0,3,4,3,10,27,0,0,5,6,0,8,0,8,26,8,8,0,6,0,9,10,9,0,0,6,6,0,14,0,0,5,1152.txt
5,12,10,12,0,16,5,0,4,0,0,0,5,5,0,4,0,0,0,0,0,0,3,0,3,10,26,0,0,5,6,0,8,8,0,26,8,20,0,6,0,9,10,9,0,0,6,6,0,14,0,0,0,1156.txt
5,12,10,12,5,16,5,5,8,0,4,7,9,5,0,4,0,0,0,0,6,0,3,0,4,10,29,9,4,4,6,6,8,8,10,26,8,10,20,7,7,9,11,9,7,0,6,8,5,20,6,7,0,1158.txt
5,12,10,12,5,16,5,5,12,0,0,8,5,5,0,4,0,0,0,0,6,0,3,0,3,10,27,11,0,5,6,0,8,8,6,26,8,23,0,6,0,9,10,9,7,0,6,6,0,14,7,6,0,1161.txt
5,12,10,12,0,16,5,0,4,0,0,0,5,5,0,4,0,0,0,0,6,0,3,0,3,10,29,0,9,5,6,6,8,12,0,26,8,8,0,6,8,9,11,9,0,0,6,7,5,14,0,7,0,1166.txt
5,12,10,12,0,16,5,0,15,5,0,0,5,5,0,4,0,0,0,0,6,0,3,0,3,10,17,0,0,5,6,6,8,7,10,26,7,14,0,6,0,9,9,9,0,0,6,7,5,14,0,6,0,1168.txt
9,23,4,4,11,5,11,4,3,11,0,17,4,3,5,4,9,4,7,0,0,7,3,0,4,9,4,9,1,5,6,0,8,7,6,10,7,1,1,6,14,10,9,9,0,0,6,1,1,1,1,6,0,1169.txt
5,12,8,9,0,13,4,6,4,0,0,5,5,5,0,4,0,14,0,9,7,0,0,4,3,9,10,0,0,5,0,0,8,7,6,8,7,8,8,6,0,7,9,9,0,0,6,5,4,8,0,0,5,1171.txt
5,12,10,12,0,16,5,0,4,5,9,0,5,5,0,4,0,0,0,0,0,0,3,0,3,10,29,0,9,4,6,0,8,0,0,26,8,8,22,7,8,9,11,9,0,0,6,6,0,14,0,7,0,1175.txt
5,12,10,12,0,16,5,0,15,0,0,0,5,5,0,4,0,0,0,0,6,0,3,0,3,10,21,9,0,5,6,0,8,8,0,25,8,22,0,6,9,9,9,9,0,0,6,6,0,21,0,0,0,1177.txt
5,16,10,12,0,16,5,0,15,5,0,0,5,5,9,4,9,0,0,0,6,0,3,0,4,10,26,15,7,5,6,15,8,8,10,20,8,12,0,6,9,9,9,9,0,5,6,8,5,14,0,5,0,1179.txt
5,12,10,12,0,16,5,0,4,0,4,0,5,5,0,4,0,0,0,0,0,0,3,10,4,10,30,0,4,4,6,16,8,20,17,26,8,8,20,5,7,9,7,9,0,0,6,8,11,14,5,7,0,1183.txt
5,16,10,11,0,17,4,6,15,5,0,5,5,5,9,4,0,6,0,9,9,0,0,4,3,9,13,0,0,5,6,6,8,7,8,16,7,17,18,6,0,9,9,9,0,0,6,5,4,9,0,0,5,1184.txt
5,16,10,12,0,16,5,6,15,0,0,5,5,8,9,4,0,0,0,0,9,0,3,4,3,10,29,29,9,5,6,0,8,8,19,26,8,12,18,6,8,9,9,9,0,0,6,6,7,14,0,7,6,1190.txt
5,16,10,12,0,16,5,21,13,0,0,12,5,5,9,4,0,6,0,10,0,0,3,0,4,10,27,9,5,5,6,6,8,8,6,26,8,23,0,6,0,9,10,9,0,0,6,7,5,21,13,6,0,1192.txt
5,12,10,12,0,16,5,0,15,0,0,0,5,5,0,4,0,0,0,0,0,0,3,0,3,10,27,15,0,5,6,0,8,8,0,26,8,12,0,6,14,9,10,9,0,0,6,6,0,14,0,6,0,1194.txt
5,12,8,8,0,13,4,0,15,0,0,0,7,5,0,4,0,19,0,0,0,0,3,0,5,8,6,12,0,5,0,6,8,7,6,7,10,0,0,6,0,11,9,11,0,0,6,5,13,0,0,0,0,1196.txt
5,12,8,9,0,13,4,0,15,0,0,0,17,0,0,0,0,6,0,0,0,0,3,0,3,9,9,22,0,5,0,6,8,7,6,9,7,12,12,6,0,10,9,9,0,0,6,5,6,8,13,6,0,1197.txt
5,12,10,12,0,16,5,0,4,0,9,0,5,5,0,4,0,6,0,0,6,5,3,10,3,10,30,0,9,4,6,6,8,19,17,26,8,8,17,7,8,9,7,9,0,0,6,7,11,14,15,7,0,1199.txt
4,19,4,20,4,5,3,4,3,4,9,17,4,3,5,8,0,0,0,0,0,3,3,0,4,10,29,9,12,5,6,0,8,8,24,26,8,10,17,7,8,9,14,9,0,0,6,12,19,21,16,7,0,1201.txt
5,12,10,12,0,16,5,0,4,5,0,0,5,5,0,4,0,0,0,0,6,0,3,0,3,10,27,0,0,5,6,0,8,8,6,26,8,19,2,6,0,9,10,9,0,0,6,6,1,14,1,6,0,1203.txt
5,12,10,12,0,16,5,6,4,5,4,5,5,5,0,4,0,18,0,0,7,7,3,10,3,10,30,0,4,4,6,0,8,0,17,26,8,8,17,5,7,9,7,9,0,0,6,6,7,14,20,7,6,1205.txt
5,16,10,12,5,16,5,5,15,0,2,7,8,17,9,10,10,17,9,3,3,2,2,2,14,12,3,30,14,2,4,4,4,4,29,4,6,6,6,3,26,6,1,3,7,5,6,6,0,15,21,7,0,1207.txt
5,12,10,12,0,16,5,0,15,0,9,0,5,5,0,4,0,0,0,0,6,0,3,0,4,10,29,0,9,5,6,7,8,15,17,26,8,13,20,7,8,9,16,8,6,0,6,13,5,14,4,1,1,1211.txt
5,12,10,12,0,16,5,0,4,5,4,0,5,5,0,4,0,0,0,10,0,0,3,0,3,10,29,0,4,5,6,0,8,0,17,26,8,8,17,7,7,9,11,9,0,0,6,6,0,14,0,7,0,1214.txt
5,12,10,12,0,16,5,0,4,5,4,0,5,5,0,4,0,0,0,0,6,0,3,0,3,10,29,0,4,5,6,0,8,0,17,26,8,8,17,7,7,9,11,9,0,0,6,6,0,14,0,7,0,1216.txt
5,12,10,11,0,16,5,0,4,5,0,0,26,0,0,0,0,6,0,21,6,0,3,0,3,10,17,0,0,5,6,0,8,7,0,21,7,8,0,6,0,9,9,9,0,0,6,5,10,14,0,0,0,1217.txt
5,12,10,12,0,16,5,0,4,5,0,0,5,5,0,4,0,0,0,0,6,0,3,12,3,10,29,0,9,5,6,6,8,19,17,26,8,8,0,9,8,9,11,9,0,0,6,7,5,14,0,7,0,1219.txt
5,12,10,11,5,17,6,5,11,0,0,8,8,5,0,4,0,0,0,0,6,0,3,0,4,9,13,9,6,5,6,0,8,7,10,14,7,23,0,6,21,9,9,9,7,0,6,5,4,21,7,6,0,1221.txt
5,16,10,12,0,16,5,21,12,0,0,8,5,5,9,4,9,6,0,0,6,0,3,0,4,10,29,9,9,7,6,0,8,8,6,26,8,23,12,0,8,9,10,9,0,0,6,6,19,19,12,7,0,1225.txt
5,12,10,12,0,16,5,6,4,0,4,5,5,5,0,4,0,0,0,9,7,8,3,4,3,10,29,0,4,4,6,0,8,19,17,26,8,8,17,7,7,9,11,9,0,0,6,6,7,14,0,7,7,1228.txt
5,12,10,11,0,16,5,0,15,0,0,0,5,8,0,4,0,6,0,0,6,7,3,0,4,9,17,29,0,5,6,6,8,7,6,20,7,12,0,6,0,9,9,9,0,0,6,5,10,14,0,6,0,1230.txt
5,12,10,12,0,16,5,6,4,5,4,5,5,5,0,4,0,0,0,9,9,0,0,4,3,10,29,0,4,5,6,6,8,0,8,26,8,8,8,9,7,9,11,9,0,0,6,7,5,14,0,7,7,1234.txt
5,12,10,12,0,16,5,0,4,0,0,0,5,5,0,4,0,0,0,10,6,0,3,8,3,10,17,0,0,5,6,0,8,7,13,26,8,8,0,6,9,9,9,9,0,0,6,6,0,14,0,0,0,1237.txt
5,16,10,11,0,17,5,0,4,5,0,0,5,5,9,14,0,0,0,9,7,0,3,4,4,9,15,0,0,5,6,6,8,7,8,20,7,8,0,6,0,9,9,9,0,0,6,5,10,14,19,0,5,1239.txt
5,16,10,12,5,16,5,5,16,0,14,5,19,17,9,10,10,17,9,3,4,12,2,11,13,2,3,30,14,2,4,4,15,5,5,4,6,6,5,4,28,12,7,9,7,5,6,6,20,14,21,7,6,1241.txt
6,8,10,11,5,14,4,5,15,0,0,0,17,0,0,0,0,0,0,0,6,0,3,0,3,9,12,11,0,5,6,0,8,7,6,12,7,22,12,6,0,10,8,9,7,0,6,5,4,8,7,6,0,1243.txt
5,16,8,8,0,13,4,21,11,0,0,8,5,5,9,4,14,6,0,10,6,0,3,0,4,9,14,9,0,5,6,0,8,8,0,7,7,23,12,6,0,7,9,9,0,5,6,5,4,21,0,6,0,1245.txt
5,12,10,11,0,17,5,0,15,0,0,0,5,5,0,4,0,0,0,0,9,0,3,4,4,9,15,15,0,5,6,6,8,7,8,19,7,12,0,6,0,9,9,9,0,0,6,5,10,8,0,6,8,1249.txt
5,12,10,12,0,16,5,0,4,0,0,0,5,5,0,4,0,0,0,0,6,0,3,0,3,10,29,0,9,5,6,0,8,0,17,26,8,8,0,6,8,9,11,9,0,0,6,6,0,14,0,7,0,1251.txt
5,12,10,12,0,16,5,6,5,5,9,5,5,8,0,4,0,10,0,0,7,0,3,10,4,10,30,8,9,9,6,6,8,0,17,26,8,9,26,5,8,9,6,8,10,0,6,7,16,15,4,1,1,1254.txt
6,18,8,8,0,13,4,0,15,5,0,0,7,5,0,4,0,6,0,9,7,0,3,4,3,9,8,0,0,5,0,0,8,7,6,7,12,13,12,6,0,7,9,11,0,0,6,5,6,8,15,0,5,1255.txt
5,12,10,12,5,16,5,5,15,0,4,0,12,0,0,0,0,6,0,0,7,0,3,4,3,10,17,15,6,5,6,0,8,7,8,29,7,12,12,6,7,9,0,9,7,0,6,0,10,14,7,14,8,1267.txt
5,16,10,12,0,16,5,6,16,0,0,5,5,5,9,4,0,6,0,9,7,0,4,4,3,10,26,11,0,5,6,0,8,8,8,26,8,22,8,9,0,9,10,9,0,0,6,6,7,14,15,0,5,1271.txt
5,16,8,7,0,13,4,0,15,5,0,0,5,5,9,4,9,6,0,0,6,0,3,0,0,14,4,14,8,0,6,6,8,8,1,7,7,30,12,0,19,11,9,9,1,1,6,5,4,6,15,0,0,1274.txt
5,12,8,8,0,13,4,6,9,5,0,7,25,0,0,0,0,16,0,10,6,0,4,0,5,8,6,0,8,5,0,0,8,7,10,7,10,0,11,6,9,7,8,11,8,0,6,5,13,0,12,12,0,1276.txt
4,15,4,4,4,5,7,4,3,14,4,17,4,3,5,4,9,0,0,0,6,0,3,3,4,10,30,5,4,9,6,0,8,8,17,26,8,9,17,5,7,9,7,9,0,5,6,6,19,21,21,7,0,1278.txt
6,8,10,11,0,16,5,0,15,5,0,0,5,5,0,4,0,0,0,0,0,0,3,0,3,9,15,0,8,5,6,0,8,7,0,20,7,13,12,6,9,9,9,9,0,0,6,5,10,14,0,13,0,1280.txt
5,16,8,9,0,13,4,6,12,0,0,5,5,5,9,4,9,18,0,11,6,0,0,0,4,9,15,9,0,7,6,0,8,8,6,7,7,23,8,0,0,7,9,9,0,5,6,5,4,21,0,0,0,1283.txt
15,22,4,17,13,5,9,4,3,11,0,17,4,3,5,4,9,6,0,0,0,0,3,0,8,11,4,27,8,5,0,0,10,7,6,7,12,0,11,6,9,0,9,11,7,0,8,5,4,4,7,14,0,1285.txt
5,12,10,12,0,16,5,21,13,0,0,12,5,8,0,4,0,0,0,10,0,0,3,0,3,10,17,9,0,5,6,0,8,7,0,21,7,23,12,6,0,9,9,9,0,0,6,6,10,21,0,0,0,1287.txt
5,12,10,12,0,16,5,6,4,5,9,7,10,0,0,8,0,0,0,0,7,5,3,7,3,10,30,0,9,4,6,0,8,8,12,26,8,18,21,5,8,9,7,9,0,0,6,12,0,14,14,7,6,1288.txt
4,14,4,4,4,5,7,4,3,10,14,17,4,3,5,3,10,2,3,3,4,2,5,2,14,2,3,3,3,2,3,3,15,4,5,4,5,6,6,4,5,6,10,9,0,5,6,6,19,4,5,7,0,1290.txt
5,16,10,12,5,16,5,20,8,0,4,7,5,5,9,4,9,8,0,10,6,7,3,0,4,10,29,9,4,0,6,6,8,8,6,20,8,10,23,0,7,9,9,9,7,5,6,6,18,21,5,7,0,1292.txt
5,12,10,12,0,16,5,0,4,0,0,0,5,5,0,4,0,0,0,0,6,0,3,0,3,10,29,0,9,5,6,6,8,10,17,26,8,8,0,9,8,9,11,9,0,0,6,7,5,14,0,7,0,1295.txt
5,16,10,12,0,16,5,6,15,5,0,5,5,5,9,4,0,6,0,9,6,0,0,0,4,10,20,16,0,5,6,6,8,8,0,26,8,12,18,9,0,9,9,9,0,0,6,6,7,14,0,0,5,1297.txt
5,12,10,12,0,16,5,0,15,0,0,0,5,5,0,4,0,8,0,10,0,7,3,0,3,10,27,11,13,5,6,0,8,8,7,26,8,22,0,6,8,9,10,9,0,0,6,6,0,14,0,6,0,1300.txt
5,16,10,12,0,16,5,6,4,0,0,5,5,5,9,4,9,6,0,28,9,7,0,4,4,10,27,0,9,0,6,6,8,19,19,26,8,8,18,0,2,9,9,9,0,5,6,8,5,14,5,7,5,1302.txt
5,12,10,12,0,16,5,0,4,5,9,0,5,5,0,4,0,0,0,0,7,0,3,4,3,10,29,0,4,5,6,0,8,19,8,26,8,8,17,7,7,9,11,9,0,0,6,6,0,14,0,7,6,1303.txt
5,12,10,12,0,16,5,21,12,0,0,8,5,5,0,4,0,6,0,0,6,0,3,0,3,10,27,9,0,5,6,6,8,8,0,26,8,23,0,6,16,9,10,9,0,0,6,7,5,21,0,6,0,1305.txt
5,12,10,12,0,16,5,6,4,5,0,5,5,5,0,4,0,0,0,9,9,0,3,4,3,10,29,0,12,5,6,6,8,0,22,26,8,8,8,6,10,9,10,9,0,0,6,7,5,14,0,7,5,1307.txt
5,12,10,11,0,16,5,21,12,0,0,8,17,0,0,0,0,6,0,0,6,0,3,0,4,9,14,9,0,5,6,0,8,7,0,28,7,23,13,6,0,9,9,9,0,0,6,5,10,20,0,0,0,1309.txt
5,12,10,12,0,16,5,0,4,0,0,0,5,5,0,4,0,0,0,0,0,0,3,0,3,10,27,0,0,5,6,6,8,19,6,26,8,8,0,6,8,9,10,9,0,0,6,7,5,14,0,6,0,1311.txt
5,12,10,12,0,16,5,0,4,5,9,0,5,5,0,4,0,0,0,10,0,0,3,0,3,10,29,0,9,5,6,0,8,0,0,26,8,8,17,7,8,9,11,9,0,0,6,6,0,14,0,7,0,1314.txt
5,12,10,12,0,16,5,0,4,5,9,0,5,5,0,8,0,0,0,0,6,0,3,0,3,10,29,0,9,4,6,6,8,19,10,26,8,8,17,7,8,9,11,9,0,0,6,7,5,14,0,7,0,1315.txt
5,12,10,12,0,16,5,6,4,0,0,7,5,5,0,4,0,0,0,10,0,7,3,0,4,10,17,0,0,5,6,6,8,7,0,20,7,8,11,6,9,9,9,9,0,0,6,5,10,14,13,6,0,1317.txt
5,12,10,11,0,16,5,21,11,5,0,8,21,0,0,0,0,0,0,13,6,0,3,0,4,10,16,11,0,5,6,0,8,7,0,30,7,11,0,6,0,9,9,9,0,0,6,5,10,8,0,0,0,1318.txt
5,12,10,12,0,16,5,6,4,0,4,5,5,5,0,4,0,0,0,0,7,0,3,10,3,10,30,0,4,4,6,6,8,8,8,26,8,8,17,5,7,9,7,9,0,0,6,7,11,14,5,7,6,1320.txt
5,12,10,12,0,16,5,6,4,0,9,5,5,5,0,4,0,0,0,0,8,0,3,8,3,10,29,0,4,4,6,0,8,0,17,26,8,8,17,7,7,9,11,9,0,0,6,6,7,14,18,7,6,1323.txt
5,12,10,12,0,16,5,0,4,0,0,0,5,5,0,4,0,0,0,0,0,0,3,0,3,10,27,0,4,5,6,0,8,9,0,26,8,8,12,6,7,9,10,9,0,0,6,6,0,14,13,10,0,1325.txt
5,12,10,12,0,16,5,6,10,0,9,7,5,5,0,4,0,0,0,10,0,0,3,0,4,10,29,11,4,5,6,6,8,8,17,26,8,23,26,7,7,9,11,9,0,0,6,7,5,14,15,7,0,1327.txt
5,12,10,12,0,16,5,17,15,0,0,0,12,0,0,0,0,6,0,0,7,7,3,4,4,10,17,9,0,5,6,6,8,7,6,26,8,12,0,6,0,9,9,9,0,0,6,12,5,16,13,6,8,1329.txt
5,12,10,12,0,16,5,5,10,0,9,5,5,5,0,4,0,0,0,9,9,0,4,4,4,10,29,11,9,5,6,6,8,8,17,26,8,11,8,9,10,9,11,9,0,0,6,8,5,14,10,7,7,1331.txt
5,12,10,12,5,16,5,5,15,5,13,0,10,0,0,8,0,0,0,10,6,5,3,7,3,10,30,21,9,4,6,0,8,10,10,26,8,12,21,5,8,9,7,9,7,0,6,12,0,14,20,7,0,1332.txt
5,12,10,12,0,16,5,0,15,0,4,0,5,5,0,4,0,0,0,10,6,0,3,0,3,10,29,0,4,5,6,6,8,10,10,26,8,17,0,6,7,9,11,9,0,0,6,7,5,14,18,7,0,1335.txt
5,16,8,8,0,13,4,7,10,0,0,16,5,5,9,4,9,6,0,0,0,0,0,0,11,8,8,9,0,5,0,6,8,7,6,7,7,23,11,6,0,11,9,9,0,0,6,5,4,4,0,0,0,1337.txt
5,12,10,12,0,16,5,0,15,0,9,0,5,5,0,8,0,0,0,6,9,0,3,4,3,10,29,13,9,5,6,0,8,8,17,26,8,12,17,7,10,9,11,9,0,0,6,6,0,14,0,7,7,1339.txt
5,12,10,12,0,16,5,6,4,5,0,7,5,5,0,4,0,0,0,11,6,0,3,0,3,10,29,0,12,5,6,0,8,0,0,26,8,8,11,6,10,9,11,9,0,0,6,6,0,14,0,7,0,1341.txt
5,12,10,12,0,16,5,0,4,0,9,0,5,5,0,4,0,0,0,9,6,0,0,8,3,10,29,0,4,5,6,0,8,8,9,26,8,20,17,7,7,9,11,9,0,0,6,6,0,14,0,7,7,1344.txt
5,12,10,12,0,16,5,0,4,5,0,0,5,5,0,4,0,0,0,0,9,0,3,4,3,10,27,0,0,5,6,0,8,0,8,26,8,8,0,6,20,9,10,9,0,0,6,6,0,14,0,6,6,1346.txt
5,12,10,12,0,16,5,6,15,5,0,5,5,5,0,4,0,0,0,9,7,0,3,4,3,10,29,0,9,5,6,6,8,10,8,26,8,14,8,6,10,9,11,9,0,0,6,7,7,14,0,7,5,1348.txt
5,16,10,12,5,17,5,20,15,5,0,7,19,5,9,4,9,6,0,0,6,7,3,0,3,9,17,0,0,5,2,2,3,1,1,2,3,1,1,2,2,4,4,6,1,1,1,5,10,1,1,1,1,1351.txt
5,12,10,12,0,16,5,0,15,0,0,0,5,5,0,4,0,0,0,10,6,0,3,0,3,10,27,0,0,5,6,0,8,10,0,26,8,19,0,6,16,9,10,9,0,0,6,6,0,14,0,6,0,1352.txt
5,12,10,12,0,16,5,6,4,0,4,5,5,5,0,4,0,0,0,9,9,5,0,10,4,10,30,0,4,4,6,6,8,0,17,26,8,8,20,5,7,9,7,9,0,0,6,7,11,14,23,7,7,1354.txt
5,12,10,12,5,16,5,5,15,5,21,0,5,5,0,4,0,0,0,0,6,0,3,0,3,10,29,14,9,4,6,6,8,8,17,26,8,12,17,7,8,9,11,9,7,0,6,7,5,14,7,7,0,1356.txt
5,12,10,12,0,16,5,5,12,0,4,9,5,5,0,4,0,0,0,10,6,0,3,0,4,10,29,11,4,5,6,6,8,8,10,26,8,23,26,7,7,9,11,9,0,0,6,7,5,14,15,7,0,1358.txt
5,12,10,12,0,16,5,6,10,0,4,8,5,4,0,4,0,0,0,0,6,0,3,10,4,10,30,9,4,9,6,6,8,8,17,26,8,23,17,5,7,9,7,14,0,0,6,7,11,15,5,7,0,1360.txt
5,12,10,11,0,15,4,0,15,5,0,0,5,5,0,4,0,6,0,0,6,0,3,0,3,9,13,16,0,5,6,6,8,7,6,14,7,12,0,6,0,9,9,9,0,0,6,5,4,8,0,0,0,1362.txt
5,12,10,12,0,16,5,21,12,0,9,8,5,5,0,4,0,0,0,0,6,0,3,0,3,10,29,9,4,5,6,0,8,8,10,26,8,23,12,6,7,9,11,9,0,0,6,6,0,21,0,7,0,1364.txt
5,12,10,12,0,16,5,0,15,0,0,0,5,5,0,4,0,0,0,10,0,0,3,0,3,10,17,0,0,5,6,0,8,7,6,26,8,19,0,6,0,9,9,9,0,0,6,6,0,14,0,6,0,1367.txt
5,12,13,5,0,20,4,0,0,5,0,0,7,5,0,4,0,16,0,0,0,0,3,0,5,11,5,0,0,5,0,6,9,7,6,7,10,0,0,6,0,0,9,11,0,0,8,5,14,0,16,6,0,1368.txt
5,12,10,12,0,16,5,0,15,0,0,0,5,5,0,4,0,0,0,0,0,0,3,0,3,10,17,0,4,5,6,0,8,7,6,20,8,14,12,6,7,9,9,9,0,0,6,6,0,14,15,6,0,1371.txt
5,12,10,12,0,6,5,5,5,13,0,6,5,5,0,4,0,0,0,10,7,0,3,4,4,10,26,8,0,5,6,6,8,6,8,26,8,9,0,6,14,9,10,9,7,6,6,7,5,16,15,0,8,1372.txt
5,12,10,12,0,16,5,5,15,0,9,5,5,5,0,4,0,8,0,0,0,0,3,0,4,10,29,9,9,4,6,6,8,8,10,26,8,12,21,7,8,9,11,9,0,0,6,7,5,4,10,7,0,1375.txt
5,12,10,12,0,16,5,21,12,0,0,8,5,5,0,4,0,0,0,0,0,0,3,0,4,10,29,11,0,5,6,6,8,8,27,26,8,11,0,6,8,9,11,9,0,0,6,8,5,14,0,6,0,1377.txt
6,8,10,12,0,16,5,0,16,0,0,0,5,5,0,4,0,0,0,0,0,0,3,0,3,10,29,11,9,5,6,6,8,8,10,26,8,22,0,6,8,9,10,9,0,0,6,6,0,14,0,7,0,1379.txt
8,8,24,14,0,0,8,0,0,7,0,0,11,5,7,5,19,23,11,22,0,10,3,0,5,11,4,14,8,5,5,9,0,7,0,0,10,21,12,6,0,0,9,11,0,0,7,5,14,0,0,13,0,1380.txt
5,12,10,12,0,16,5,5,5,0,9,8,10,0,0,8,0,0,0,0,6,0,3,19,4,10,29,8,9,4,6,6,8,8,10,26,8,9,26,7,8,9,7,9,7,0,6,12,5,14,7,7,0,1383.txt
5,12,10,11,0,17,4,0,15,0,0,0,5,5,0,4,0,6,0,0,6,7,3,5,3,9,13,9,0,5,6,0,8,7,6,14,7,22,0,6,0,9,9,9,0,0,6,5,4,18,0,6,0,1389.txt
5,16,10,12,0,16,5,0,15,0,0,0,5,5,9,4,9,6,0,10,0,7,3,0,3,9,17,29,0,5,6,6,8,8,6,20,8,12,0,6,0,9,9,9,0,0,6,7,5,14,0,0,0,1390.txt
5,12,10,12,0,16,5,0,15,0,0,0,17,0,0,0,0,0,0,10,6,0,3,0,3,10,17,16,0,5,6,0,8,7,0,21,7,12,0,6,14,9,9,9,0,0,6,11,10,14,0,6,0,1392.txt
5,12,10,12,0,16,5,0,4,0,0,0,5,5,0,4,0,0,0,10,6,0,3,0,4,10,27,0,0,5,6,6,8,20,6,26,8,8,0,6,18,9,10,9,0,0,6,7,5,14,0,0,0,1395.txt
5,12,10,12,0,16,5,6,15,0,9,5,5,5,0,4,0,0,0,9,9,5,0,4,3,10,29,15,9,5,6,0,8,8,8,26,8,12,17,7,10,9,11,9,0,0,6,6,7,14,0,7,9,1396.txt
5,12,10,12,5,16,5,5,12,5,0,8,9,5,0,4,0,0,0,11,7,7,3,8,4,10,26,11,0,5,6,0,8,8,6,26,8,23,0,6,0,9,10,9,7,0,6,6,12,14,7,0,6,1398.txt
5,12,10,12,0,16,5,0,15,5,4,0,5,5,0,4,0,0,0,0,0,0,3,0,3,10,29,0,4,5,6,6,8,9,17,26,8,12,0,6,7,9,11,9,0,0,6,6,0,14,0,7,0,1400.txt
5,12,10,12,5,16,5,5,12,5,4,8,10,0,0,8,0,0,0,10,8,3,3,8,4,10,29,9,4,5,6,6,8,8,21,26,8,23,30,7,7,9,11,9,7,0,6,10,5,16,6,7,6,1402.txt
5,12,10,12,0,16,5,0,15,0,0,0,5,5,0,0,0,6,0,0,0,0,3,0,3,10,17,15,0,5,6,0,8,7,0,21,7,12,12,6,0,9,9,9,0,0,6,6,10,14,22,0,0,1405.txt
5,12,10,12,0,16,5,6,4,5,5,7,5,5,0,4,0,0,0,0,7,0,3,4,3,10,29,0,9,5,6,0,8,0,8,26,8,8,17,7,8,9,11,9,0,0,6,6,8,14,0,7,6,1407.txt
5,12,10,12,0,16,5,0,15,0,0,0,24,0,0,0,0,0,0,0,6,0,3,0,3,10,17,0,0,5,6,6,8,7,0,29,7,20,0,6,0,9,9,9,0,0,6,12,5,14,0,0,0,1409.txt
5,16,10,12,5,16,5,5,5,5,2,5,9,4,9,9,10,25,4,3,4,18,2,11,13,21,3,30,14,2,4,4,12,5,4,4,6,6,5,10,26,12,7,9,7,5,6,6,20,15,21,7,6,1412.txt
5,12,10,12,0,16,5,0,15,0,0,0,5,5,0,4,0,0,0,0,6,0,3,0,3,10,27,0,5,5,6,0,8,8,0,26,8,14,0,6,8,9,10,9,0,0,6,6,0,14,0,0,0,1416.txt
5,12,10,12,0,16,5,21,11,0,9,8,5,5,0,8,0,0,0,0,0,0,3,0,4,10,29,9,9,5,6,6,8,8,10,26,8,23,17,7,8,9,11,9,0,0,6,7,5,21,6,7,0,1418.txt
5,12,10,11,0,15,4,0,4,5,0,0,5,5,0,4,0,0,0,0,0,0,3,0,3,9,15,0,0,5,6,0,8,7,0,15,7,8,0,6,11,9,9,9,0,0,6,5,4,8,0,6,0,1421.txt
5,12,10,12,0,16,5,0,15,0,9,0,5,8,0,4,0,0,0,0,0,0,3,0,3,10,29,9,4,5,6,6,8,8,27,26,8,12,17,7,7,9,11,9,0,0,6,6,0,21,0,7,0,1422.txt
5,12,10,12,0,16,5,0,4,5,0,0,5,5,0,4,0,0,0,0,0,0,3,0,3,10,17,0,0,5,6,0,8,7,0,26,8,8,0,6,14,9,9,9,0,0,6,6,0,14,0,6,0,1425.txt
5,12,10,12,0,16,5,0,4,5,0,0,5,5,0,4,0,0,0,9,8,0,3,8,4,10,17,0,0,5,6,6,8,7,8,22,7,20,0,6,0,9,9,9,0,0,6,7,10,14,0,6,5,1427.txt
5,12,10,11,0,17,4,0,4,0,0,0,5,5,0,4,0,0,0,0,6,0,3,8,3,9,15,0,0,5,6,0,8,7,13,16,7,8,0,6,0,9,9,9,0,0,6,5,4,8,0,6,0,1429.txt
5,12,10,11,0,17,5,0,9,5,0,0,5,5,0,0,0,6,0,0,6,0,3,0,3,9,13,0,0,5,6,0,8,7,6,14,7,8,0,6,9,9,9,9,11,0,6,5,10,8,0,12,0,1431.txt
5,12,10,12,0,16,5,6,15,0,4,5,5,5,0,4,0,0,0,9,7,0,0,4,3,10,17,0,4,5,6,6,8,8,8,24,8,17,8,6,7,9,9,9,0,0,6,7,5,14,0,0,5,1433.txt
5,12,10,12,0,16,5,6,10,5,4,5,10,0,0,8,0,0,0,10,6,0,4,9,3,10,29,11,4,4,6,6,8,8,17,26,8,23,17,7,7,9,7,9,0,0,6,11,5,14,0,7,6,1434.txt
5,12,10,12,0,16,5,6,10,5,4,5,10,0,0,8,0,0,0,10,6,0,4,9,3,10,29,11,4,4,6,6,8,8,17,26,8,23,17,7,7,9,7,9,0,0,6,11,5,14,0,7,6,1436.txt
5,12,10,12,0,16,5,0,15,0,4,0,5,5,0,4,0,8,0,0,0,7,3,10,4,10,30,14,4,4,6,7,8,8,17,26,8,12,20,5,7,9,7,9,0,0,6,13,11,14,14,7,0,1439.txt
5,12,10,12,0,16,5,6,15,5,4,5,5,5,0,4,0,0,0,10,0,0,4,0,3,10,29,0,4,5,6,0,8,13,17,26,8,17,17,7,7,9,11,9,0,0,6,6,7,14,0,7,0,1441.txt
5,12,10,11,0,16,5,0,15,5,0,0,5,5,0,4,0,8,0,10,6,0,3,0,3,9,15,0,0,5,6,0,8,7,0,19,7,14,0,6,0,9,9,9,0,0,6,5,10,8,0,6,0,1442.txt
5,12,10,11,0,13,4,0,15,5,0,0,15,0,0,0,0,6,0,0,6,0,3,8,4,9,10,0,0,5,6,6,8,7,9,12,7,12,14,6,0,10,8,9,0,0,6,5,6,8,15,6,8,1444.txt
5,12,10,12,5,16,5,5,5,0,4,8,5,5,0,4,0,0,0,0,0,0,3,0,4,10,29,8,4,5,6,6,8,8,10,26,8,9,20,7,7,9,11,9,7,0,6,7,5,21,7,7,0,1446.txt
5,12,10,12,0,16,5,21,10,0,0,8,17,0,0,8,0,0,0,10,6,0,3,0,4,10,28,9,0,5,6,0,8,8,10,26,8,23,0,6,8,9,11,9,0,0,6,12,12,20,18,0,0,1448.txt
5,12,10,12,0,16,5,0,4,5,0,0,5,5,0,0,0,0,0,0,6,0,3,0,3,10,27,0,0,5,6,0,8,0,0,26,8,8,0,6,17,9,10,9,0,0,6,6,0,14,0,0,0,1451.txt
5,12,10,12,0,16,5,0,15,0,0,0,5,5,0,4,0,0,0,0,6,0,3,0,3,10,21,0,4,5,6,0,8,7,0,26,8,17,0,6,7,9,9,9,0,0,6,6,0,14,0,6,0,1453.txt
5,12,10,12,0,16,5,9,5,0,4,8,5,4,0,4,0,0,0,10,0,0,3,0,4,10,29,8,4,4,6,0,8,8,17,26,8,9,17,7,7,9,11,9,0,5,6,6,9,21,5,7,0,1454.txt
5,16,10,11,0,17,4,21,10,0,0,8,5,5,9,4,8,6,0,0,6,0,3,0,4,9,17,11,4,5,6,6,8,7,0,17,7,23,0,6,7,9,9,9,0,0,6,5,4,12,0,6,0,1456.txt
5,12,10,12,5,16,5,5,12,0,13,8,5,5,0,4,0,0,0,0,6,0,3,0,4,10,29,11,4,5,6,6,8,10,17,26,8,11,20,7,7,9,11,9,7,0,6,7,5,14,7,7,0,1458.txt
5,12,10,12,0,16,5,6,4,5,4,5,18,0,0,8,0,6,0,10,6,0,3,5,3,10,29,0,4,5,6,0,8,20,24,26,8,8,17,7,7,9,11,9,0,0,6,11,7,14,15,7,0,1460.txt
5,12,10,12,0,16,5,0,15,5,0,0,5,5,0,4,0,0,0,0,7,0,3,4,3,10,20,29,8,5,6,6,8,8,8,27,8,12,15,6,14,9,9,9,0,0,6,7,5,14,0,13,6,1462.txt
5,12,10,12,0,16,5,0,4,5,0,0,5,5,0,4,0,0,0,0,6,0,3,0,3,10,27,0,0,5,6,6,8,0,0,26,8,8,0,6,22,9,10,9,0,0,6,7,5,14,0,0,0,1465.txt
5,12,10,12,0,16,5,0,4,0,9,0,5,5,0,4,0,0,0,0,6,0,3,0,3,10,29,0,9,5,6,0,8,0,17,26,8,8,17,7,8,9,11,9,0,0,6,6,0,14,1,7,0,1467.txt
5,12,10,12,0,16,5,0,15,0,4,0,5,5,0,4,0,0,0,9,6,0,3,0,3,10,29,0,4,5,6,0,8,8,0,26,8,13,17,7,7,9,11,9,0,0,6,6,0,14,0,7,7,1469.txt
5,16,10,12,0,16,5,6,23,5,4,5,5,5,9,4,9,0,0,11,9,7,3,10,4,10,30,9,4,4,6,6,8,8,8,26,8,10,17,5,7,9,7,9,0,5,6,6,20,15,21,7,6,1470.txt
5,16,8,8,0,13,4,21,12,0,0,8,5,8,9,4,0,6,0,0,6,0,0,0,8,8,7,9,0,5,0,0,8,7,0,7,0,23,12,6,0,7,9,11,0,0,6,5,4,19,0,0,0,1473.txt
5,12,10,11,0,16,5,0,15,0,0,0,5,5,0,4,0,0,0,0,0,0,3,0,3,10,17,16,0,5,6,0,8,7,0,20,7,12,0,6,0,9,9,9,0,0,6,5,10,14,0,0,0,1475.txt
5,12,10,12,0,16,5,0,15,0,9,0,10,0,0,8,0,0,0,0,7,0,3,7,4,10,30,16,4,4,6,6,8,8,8,26,8,12,17,7,7,9,7,9,0,0,6,12,11,14,15,7,6,1477.txt
5,12,10,11,0,16,5,0,15,0,0,0,5,5,0,0,0,6,0,11,6,0,3,0,4,10,15,14,0,5,6,0,8,7,6,19,7,12,12,6,0,9,9,9,0,0,6,5,10,8,0,6,0,1480.txt
5,16,10,12,6,6,5,6,29,5,0,5,5,5,9,4,15,0,0,9,9,0,3,4,4,10,29,6,9,7,6,6,8,6,8,26,9,27,8,0,10,9,10,9,0,6,6,7,5,16,12,7,5,1482.txt
5,12,8,9,0,13,4,0,15,0,0,0,13,0,0,0,0,6,0,0,7,0,3,8,3,9,10,11,0,5,0,0,8,7,8,9,7,22,0,6,0,10,9,9,0,0,6,5,6,8,0,6,8,1484.txt
5,12,11,9,0,13,4,0,15,5,0,0,5,5,0,4,0,6,0,10,6,0,3,0,3,9,10,0,0,5,6,6,8,7,6,9,7,19,15,6,0,10,9,9,0,0,6,5,4,8,0,0,0,1487.txt
5,12,10,12,0,16,5,6,15,0,4,5,5,5,0,4,0,0,0,9,6,5,0,0,4,10,29,0,4,4,6,16,8,8,0,26,8,14,17,7,7,9,11,9,0,0,6,8,5,14,0,7,7,1490.txt
5,12,10,12,0,16,5,0,15,5,9,0,5,5,0,4,0,0,0,0,0,0,3,0,3,10,29,0,9,5,6,0,8,8,0,26,8,17,21,7,8,9,11,9,0,0,6,6,0,14,0,7,0,1491.txt
5,16,29,24,0,7,4,6,10,0,0,5,5,5,9,4,9,6,0,10,0,7,0,0,0,0,4,11,0,0,6,6,11,8,6,7,7,7,8,0,17,0,16,12,10,5,0,2,1,5,4,4,4,1494.txt
5,16,10,12,0,16,5,6,12,5,14,5,5,5,9,2,5,17,3,3,4,9,5,17,13,21,3,2,2,2,4,4,15,5,5,4,5,6,6,10,6,13,10,9,0,5,6,6,15,14,17,7,5,1497.txt
5,12,10,11,0,16,5,5,15,0,0,0,5,5,0,4,0,0,0,0,0,0,3,0,3,10,15,0,0,5,6,6,8,7,6,19,7,19,0,6,9,9,9,9,0,0,6,5,10,8,10,6,0,1499.txt
5,12,10,12,0,16,5,0,15,0,9,0,5,5,0,4,0,0,0,0,0,0,3,0,3,10,29,0,12,5,6,0,8,8,24,26,8,17,0,6,8,9,11,9,0,0,6,6,0,14,0,7,0,1502.txt
5,12,10,12,0,16,5,0,15,5,0,0,17,0,0,0,0,6,0,10,6,3,3,8,4,10,26,21,0,5,6,6,8,7,6,26,8,12,0,6,0,9,10,9,0,0,6,10,5,14,0,0,8,1504.txt
4,19,4,17,8,4,7,4,3,14,4,17,4,3,5,4,0,6,0,0,0,0,3,0,4,10,29,8,4,4,6,6,8,6,17,26,8,9,26,7,7,9,11,9,7,0,6,7,5,21,6,7,0,1505.txt
5,12,10,12,5,16,5,5,4,5,4,0,5,5,0,4,0,0,0,10,6,0,3,10,3,10,30,0,4,4,6,0,8,14,10,26,8,8,17,5,7,9,7,9,7,0,6,6,0,14,20,7,0,1507.txt
5,12,10,12,0,16,5,6,5,0,9,5,5,5,0,4,0,0,0,13,9,0,4,4,4,10,29,8,9,7,6,6,8,8,8,26,8,9,18,0,10,9,11,9,0,0,6,7,5,14,0,7,6,1509.txt
5,12,10,11,0,15,4,5,15,0,0,0,5,5,0,4,0,0,0,0,6,0,3,8,3,9,13,0,8,5,6,0,8,7,8,14,7,17,12,6,0,9,9,9,0,0,6,5,4,8,15,6,8,1511.txt
5,12,10,11,0,21,4,6,16,0,0,7,17,0,0,0,0,6,0,0,0,0,0,0,4,9,12,11,0,5,6,6,8,7,0,14,7,26,11,6,0,9,9,9,0,0,6,5,4,8,13,0,0,1513.txt
5,12,10,11,0,16,5,21,12,5,0,8,5,5,0,4,0,6,0,10,0,0,3,0,3,10,15,11,0,5,6,0,8,7,6,19,7,23,0,6,0,9,9,9,0,0,6,5,10,8,0,0,0,1515.txt
5,12,10,12,0,16,5,6,15,0,0,7,5,5,0,4,0,0,0,0,6,0,3,0,3,10,27,29,5,5,6,6,8,8,6,26,8,13,23,6,8,9,10,9,0,0,6,7,5,14,16,13,0,1518.txt
5,12,10,12,0,16,5,5,5,5,9,8,10,0,0,8,0,6,0,0,7,0,3,9,4,10,30,25,9,4,6,6,8,8,8,26,8,9,21,7,8,9,7,9,0,0,6,12,11,16,6,7,6,1519.txt
5,12,10,11,0,14,4,6,15,5,4,5,5,5,0,4,0,8,0,9,6,0,0,0,3,9,12,14,6,5,6,6,8,7,10,13,7,12,8,6,21,10,9,9,0,0,6,5,4,8,0,0,5,1521.txt
5,12,10,11,0,16,5,0,15,0,0,0,5,5,0,4,0,0,0,10,0,0,3,0,3,10,17,29,0,5,6,0,8,7,0,20,7,12,0,6,0,9,9,9,0,0,6,5,10,14,0,0,0,1523.txt
5,12,10,11,0,16,5,0,15,0,0,0,5,5,0,4,0,0,0,11,0,0,0,0,3,10,15,0,0,5,6,0,8,7,0,20,7,16,12,6,30,9,9,9,0,0,6,5,10,8,0,0,0,1526.txt
5,12,10,12,5,16,5,5,23,0,0,5,9,5,0,4,0,0,0,0,6,0,3,0,4,10,27,11,0,5,6,0,8,8,6,26,8,10,8,6,9,9,10,9,7,0,6,6,7,14,7,6,0,1528.txt
5,16,10,12,5,16,5,5,15,5,0,0,9,5,9,4,9,6,0,9,9,7,3,4,4,10,23,15,9,5,6,6,8,10,6,20,8,12,0,6,0,9,9,9,7,5,6,6,12,14,7,15,5,1529.txt
5,12,10,12,0,16,5,0,15,0,0,0,5,8,0,4,0,6,0,0,6,0,3,0,3,10,23,29,0,5,6,6,8,7,0,26,8,12,0,6,0,9,9,9,0,0,6,7,5,14,0,0,0,1532.txt
5,12,10,12,5,16,5,5,11,0,15,8,9,5,0,4,0,0,0,0,6,0,3,0,3,10,29,9,9,5,6,0,8,8,17,26,8,23,17,7,8,9,11,9,7,0,6,6,0,19,7,7,0,1534.txt
5,16,10,12,5,16,5,20,20,5,0,7,5,5,9,4,9,10,0,10,6,0,3,0,4,10,27,9,9,7,6,0,8,8,10,24,8,10,11,0,9,9,9,9,7,5,6,6,19,19,7,5,0,1536.txt
5,12,10,12,0,16,5,10,5,0,0,8,15,0,0,0,0,6,0,10,6,0,3,8,4,10,26,5,0,5,6,6,8,7,8,26,8,9,25,6,0,9,10,9,0,0,6,10,12,16,0,6,8,1538.txt
5,12,10,12,0,16,5,0,4,0,9,0,5,5,0,4,0,0,0,10,6,0,3,0,3,10,29,0,9,4,6,0,8,8,0,26,8,20,17,7,8,9,11,9,0,0,6,6,0,14,0,7,0,1540.txt
5,12,10,12,0,16,5,0,4,5,0,0,5,5,0,4,0,0,0,0,6,0,3,8,3,10,21,0,0,5,6,6,8,0,9,25,8,8,15,6,0,9,9,9,0,0,6,7,5,14,0,0,8,1543.txt
5,12,10,11,0,15,4,6,15,5,0,7,5,5,0,4,0,0,0,0,8,0,3,8,3,9,13,0,6,5,6,0,8,7,8,14,7,17,10,6,21,9,9,9,0,0,6,5,4,8,11,13,8,1545.txt
5,16,10,12,0,16,5,0,15,0,0,0,5,5,8,4,9,6,7,0,6,0,3,0,3,10,4,0,0,5,6,6,8,7,0,20,7,17,0,6,0,9,9,9,0,0,6,5,10,14,0,6,0,1546.txt
5,12,10,12,0,16,5,6,15,5,0,5,5,5,0,4,0,6,0,9,7,0,3,4,3,10,22,0,0,5,6,0,8,7,8,26,8,17,8,6,20,9,10,9,0,0,6,6,7,14,15,0,5,1548.txt
5,12,10,12,5,16,5,5,12,5,0,8,5,5,0,4,0,0,0,10,0,0,3,0,3,10,18,11,0,5,6,0,8,7,10,26,8,23,12,6,0,9,9,9,7,0,6,6,0,14,7,0,0,1551.txt
5,12,10,12,0,16,5,0,15,0,9,0,5,5,0,4,0,0,0,0,0,0,3,0,4,10,29,21,12,5,6,6,8,8,0,26,8,12,0,6,8,9,11,9,0,0,6,7,5,14,0,7,0,1552.txt
6,18,10,12,0,16,5,21,12,0,4,8,5,5,0,4,0,0,0,0,6,0,3,0,4,10,29,9,4,5,6,0,8,8,26,26,8,23,17,7,7,9,11,9,0,0,6,6,12,18,0,7,0,1556.txt
5,12,10,12,0,16,5,5,4,0,9,7,5,5,0,4,0,0,0,0,6,0,3,0,3,10,29,0,9,4,6,7,8,17,10,26,8,8,17,7,8,9,11,9,0,0,6,13,5,14,9,7,0,1558.txt
5,12,10,11,0,16,5,0,4,5,0,0,25,0,0,0,0,6,0,0,6,0,3,0,3,10,15,0,8,5,6,0,8,7,0,28,7,19,0,6,9,9,0,9,0,0,6,5,10,8,0,14,0,1561.txt
5,12,10,12,0,16,5,0,4,0,4,0,5,5,0,6,0,0,0,0,6,0,3,0,3,10,29,0,4,5,6,0,8,20,0,26,8,8,0,6,7,9,11,9,0,0,6,6,0,14,0,7,0,1563.txt
5,12,10,12,0,16,5,0,15,0,9,0,5,5,0,4,0,0,0,10,0,0,3,10,4,10,30,11,9,4,6,6,8,8,0,26,8,22,20,5,8,9,7,9,0,0,6,8,11,14,5,7,0,1565.txt
5,12,10,12,0,16,5,0,15,5,0,0,5,5,0,4,0,0,0,0,0,0,3,0,4,10,29,16,9,5,6,6,8,17,22,26,8,12,0,6,8,9,10,9,0,0,6,7,5,14,0,7,0,1567.txt
5,12,10,12,0,16,5,0,4,0,0,0,5,5,0,0,0,6,0,0,6,0,3,0,3,10,17,0,0,5,6,0,8,7,0,21,7,8,0,6,0,9,9,9,0,0,6,6,10,14,0,0,0,1570.txt
5,12,10,11,0,16,5,0,15,5,0,0,5,5,0,4,0,6,0,0,6,0,3,0,3,10,17,0,0,5,6,0,8,7,0,20,7,12,12,6,19,9,9,9,0,0,6,5,10,14,19,0,0,1572.txt
5,12,10,12,0,16,5,0,9,5,9,0,5,5,0,4,0,0,0,0,7,0,3,10,4,10,30,11,9,4,6,6,8,8,8,26,8,26,22,5,8,9,7,9,11,0,6,7,11,14,24,7,6,1574.txt
5,12,10,12,0,16,5,0,15,0,0,0,5,5,0,4,0,0,0,0,6,0,3,0,3,10,26,0,0,5,6,0,8,7,0,26,8,14,14,6,0,9,10,9,0,0,6,6,0,14,0,6,0,1581.txt
5,12,10,12,0,16,5,6,4,0,4,7,5,5,0,4,0,0,0,0,6,0,3,0,4,10,29,0,4,5,6,6,8,20,10,26,8,8,20,7,7,9,11,9,0,0,6,7,5,14,11,7,0,1583.txt
5,12,10,12,0,16,5,21,12,0,0,8,5,5,0,0,0,6,0,0,9,0,3,4,3,10,17,9,0,5,6,0,8,7,8,21,7,23,12,6,0,9,9,9,0,0,6,5,10,16,15,6,8,1585.txt
5,16,10,11,0,14,4,21,10,0,0,8,5,5,9,4,0,6,0,0,0,0,3,0,4,9,13,9,0,5,6,0,8,7,0,12,7,23,0,6,0,10,9,9,0,0,6,5,4,21,16,6,0,1587.txt
5,12,10,11,0,16,5,0,15,5,0,0,5,5,0,4,0,6,0,10,6,0,3,0,3,10,17,0,0,5,6,0,8,7,0,20,7,20,0,6,0,9,9,9,0,0,6,5,10,14,0,0,0,1589.txt
5,12,10,12,0,16,5,0,4,0,4,0,5,5,0,4,0,0,0,11,6,7,3,10,4,10,30,0,4,4,6,7,8,12,17,26,8,8,20,5,7,9,7,9,0,0,6,13,11,14,21,7,0,1590.txt
6,8,10,11,0,16,5,0,15,0,0,0,5,5,0,4,0,6,0,0,0,0,3,0,3,10,15,22,0,5,6,6,8,7,0,20,7,12,0,6,0,9,9,9,0,0,6,5,10,8,0,0,0,1594.txt
5,12,10,12,0,16,5,0,15,0,9,0,5,5,0,4,0,0,0,11,6,0,3,8,3,10,29,16,9,4,6,0,8,8,9,26,8,12,17,7,8,9,11,9,0,0,6,6,0,14,0,7,6,1596.txt
5,12,10,11,0,16,5,0,4,5,0,0,15,11,0,0,0,0,0,0,6,0,3,8,3,10,17,0,8,5,6,6,8,7,8,20,7,8,0,6,9,9,9,9,0,0,6,5,10,14,0,0,8,1598.txt
5,12,10,12,0,16,5,6,15,0,0,5,5,5,0,4,0,0,0,0,6,0,3,8,3,10,27,0,4,5,6,0,8,8,25,26,8,14,8,6,7,9,10,9,0,0,6,6,7,14,0,13,8,1600.txt
5,12,10,11,0,13,4,21,12,0,0,8,5,5,0,4,0,6,0,0,7,0,3,4,3,9,10,9,0,5,6,0,8,7,8,10,7,23,12,6,0,10,9,9,0,0,6,5,4,16,0,0,8,1602.txt
5,12,10,12,0,16,5,0,15,0,9,0,5,5,0,4,0,0,0,0,6,0,3,0,3,10,29,14,9,5,6,0,8,23,14,26,8,12,17,7,8,9,11,9,0,0,6,6,0,14,0,7,0,1604.txt
5,12,10,11,0,16,5,0,15,5,0,0,5,5,0,4,0,6,0,10,6,0,3,0,3,9,15,14,0,5,6,6,8,7,0,19,7,12,0,6,0,9,9,9,0,0,6,5,10,8,0,0,0,1605.txt
5,12,10,11,0,14,4,21,12,5,0,8,5,5,0,4,0,6,0,9,6,0,3,0,3,9,12,9,8,5,6,6,8,7,6,13,7,23,0,6,14,10,9,9,0,0,6,5,4,21,18,0,5,1608.txt
5,12,10,11,0,16,5,0,15,0,0,0,5,5,0,4,0,10,0,9,7,0,3,4,3,9,15,0,0,5,6,0,8,7,8,19,7,17,0,6,0,9,9,9,0,0,6,5,10,8,0,0,5,1610.txt
5,12,10,12,0,16,5,6,12,0,0,7,15,0,0,0,0,6,0,0,6,0,3,8,3,10,27,9,0,5,6,0,8,8,25,26,8,23,10,6,0,9,14,9,0,0,6,12,18,16,0,6,8,1612.txt
5,12,10,12,0,16,5,0,4,0,9,0,5,5,0,4,0,0,0,10,0,0,3,0,3,10,29,0,9,4,6,6,8,11,0,26,8,8,17,7,8,9,11,9,0,0,6,7,5,14,0,7,0,1615.txt
5,12,10,12,0,16,5,0,15,0,4,0,10,0,0,8,0,8,0,0,0,0,3,18,3,10,29,22,4,4,6,6,8,8,10,26,8,12,17,7,7,9,7,9,0,0,6,7,5,14,11,7,0,1616.txt
5,12,10,12,0,16,5,0,15,0,0,0,5,5,0,4,0,0,0,11,7,0,3,8,4,10,27,12,5,5,6,6,8,8,8,26,8,24,0,6,17,9,10,9,0,0,6,7,5,14,0,0,6,1618.txt
5,12,10,12,0,16,5,0,15,0,4,0,5,5,0,4,0,6,0,0,6,0,3,0,3,10,29,29,4,5,6,0,8,8,17,26,8,12,0,6,7,9,11,9,0,0,6,6,0,14,0,7,0,1622.txt
5,12,10,12,0,16,5,6,15,0,9,7,18,0,0,8,0,0,0,9,8,0,3,8,3,10,29,0,4,5,6,6,8,8,8,26,8,14,17,7,7,9,11,9,0,0,6,9,5,14,0,7,9,1623.txt
5,12,10,12,0,16,5,0,15,0,9,0,5,5,0,4,0,0,0,0,6,0,3,0,3,10,29,0,9,5,6,0,8,25,0,26,8,8,17,7,8,9,11,9,0,0,6,6,0,14,0,7,0,1626.txt
5,12,10,12,0,16,5,0,4,5,0,0,12,0,0,0,0,6,0,0,7,0,3,4,3,10,27,0,0,5,6,0,8,19,8,26,8,8,0,6,0,9,8,9,0,0,6,12,0,14,0,0,8,1629.txt
5,12,10,11,0,16,5,6,15,0,0,5,5,5,0,4,0,6,0,0,7,0,3,8,3,9,15,29,0,5,6,0,8,7,8,28,7,12,8,6,0,9,9,9,0,0,6,5,10,8,0,6,8,1631.txt
5,12,10,12,0,16,5,0,15,0,9,0,5,5,0,4,0,18,0,10,0,0,3,10,3,10,30,19,9,4,6,0,8,8,17,26,8,12,17,7,8,9,7,9,0,0,6,6,0,14,0,7,0,1632.txt
5,12,10,11,0,13,4,21,19,0,0,8,16,0,0,0,0,6,0,7,6,0,3,0,4,9,11,9,0,5,6,0,8,7,11,12,7,23,0,6,0,10,9,9,11,0,6,5,4,20,16,11,0,1637.txt
5,12,11,9,0,13,4,12,14,0,0,0,5,5,0,0,0,6,0,0,0,0,3,0,3,9,10,11,6,5,0,0,8,7,0,9,7,23,0,6,21,10,9,9,0,0,6,5,6,8,15,10,0,1639.txt
5,16,10,12,5,16,5,5,4,5,13,5,5,5,9,4,9,0,0,0,0,0,3,0,3,10,29,0,9,5,6,0,8,18,10,26,8,8,8,8,8,9,11,9,7,0,6,6,7,14,7,7,0,1641.txt
5,16,10,12,0,16,5,6,4,0,0,7,5,5,9,4,0,6,0,9,7,0,0,4,3,10,18,0,0,5,6,0,8,8,8,25,8,8,10,6,0,9,9,9,0,0,6,6,8,14,0,0,5,1643.txt
5,12,10,11,0,14,4,0,15,5,0,0,17,0,0,0,0,6,0,0,0,0,3,0,3,9,12,0,8,5,6,6,8,7,0,13,7,17,0,6,9,10,9,9,0,0,6,5,4,8,0,0,0,1645.txt
5,12,10,11,0,13,4,6,4,5,0,5,15,0,0,0,0,6,0,21,6,0,0,8,3,9,10,0,0,5,0,0,8,7,9,10,7,20,8,6,0,10,8,9,0,0,6,5,6,8,0,0,8,1647.txt
5,12,10,12,0,16,5,6,12,5,4,7,10,0,0,8,0,8,0,0,6,0,3,7,3,10,30,11,4,4,6,0,8,8,30,26,8,23,21,7,7,9,7,9,0,0,6,12,0,14,0,7,6,1650.txt
5,12,10,12,0,16,5,0,15,0,4,0,5,5,0,4,0,0,0,10,0,0,3,0,4,10,23,0,4,5,6,6,8,7,10,26,8,14,0,6,7,9,10,9,0,0,6,7,5,14,0,12,0,1652.txt
5,12,10,12,0,16,5,0,4,0,0,0,5,5,0,8,0,0,0,9,9,0,3,4,3,10,29,0,8,5,6,0,8,0,8,26,8,8,0,6,10,9,11,9,0,0,6,6,0,14,0,13,9,1654.txt
5,12,10,12,0,16,5,0,15,0,0,0,17,0,0,0,0,10,0,10,6,0,3,0,3,10,17,29,0,5,6,0,8,7,0,26,8,12,0,6,0,9,10,9,0,0,6,11,0,14,16,6,0,1655.txt
5,12,10,11,0,17,6,6,4,5,0,7,5,5,0,4,0,6,0,0,6,0,3,0,3,9,13,0,0,5,6,0,8,7,6,14,7,8,11,6,0,9,9,9,0,0,6,5,4,8,0,6,0,1657.txt
5,12,10,12,0,16,5,0,15,0,4,0,17,0,0,8,0,0,0,0,0,0,0,0,3,10,27,0,4,5,6,0,8,8,0,26,8,17,12,6,7,9,11,9,0,0,6,12,0,14,0,0,0,1660.txt
4,19,4,21,10,5,3,4,3,4,0,17,4,3,5,4,0,6,0,0,6,7,3,0,4,10,29,8,0,5,6,6,8,6,24,26,8,9,11,6,8,9,11,9,0,6,6,7,5,21,0,6,0,1662.txt
5,12,10,11,0,17,5,0,15,0,0,0,5,5,0,4,0,6,0,21,7,0,3,4,3,9,13,0,0,5,6,0,8,7,6,28,7,14,0,6,0,9,9,9,0,0,6,5,10,8,0,0,8,1663.txt
5,12,10,12,0,16,5,0,15,0,0,0,5,5,0,4,0,0,0,10,0,0,3,0,4,10,21,29,4,5,6,6,8,7,0,26,8,12,0,6,7,9,10,9,0,0,6,7,5,14,0,0,0,1666.txt
5,12,10,12,0,16,5,21,12,0,0,8,5,8,0,4,0,0,0,0,7,0,3,4,3,10,17,9,0,5,6,0,8,7,6,20,7,23,25,6,20,9,9,10,0,0,6,6,0,16,0,0,8,1667.txt
5,12,10,12,0,16,5,0,15,0,0,0,5,5,0,4,0,0,0,0,0,0,3,0,3,10,20,0,8,5,6,0,8,7,0,26,8,17,0,6,9,9,9,9,0,0,6,6,0,14,0,0,0,1669.txt
5,12,10,12,0,16,5,0,4,0,9,0,5,5,0,4,0,0,0,0,6,0,3,10,3,10,29,0,9,4,6,6,8,12,17,26,8,8,17,7,8,9,7,9,0,0,6,7,5,14,0,7,0,1671.txt
5,12,10,12,0,16,5,0,4,0,0,0,5,5,0,4,0,0,0,0,0,0,3,0,3,10,26,0,0,5,6,0,8,0,0,26,8,8,0,6,0,9,9,9,0,0,6,6,0,14,0,8,0,1673.txt
5,12,10,12,0,16,5,0,15,0,0,0,5,5,0,4,0,0,0,9,7,0,3,4,3,10,17,0,0,5,6,6,8,7,6,26,7,14,0,6,13,9,9,9,0,0,6,6,0,14,0,0,5,1676.txt
5,12,10,11,0,13,4,0,15,0,4,0,5,5,0,4,0,0,0,0,0,0,3,0,3,9,12,29,6,5,6,0,8,7,0,11,7,12,0,6,21,10,9,9,0,0,6,5,4,8,0,6,0,1677.txt
5,12,13,5,0,20,4,0,0,0,0,0,12,0,0,0,0,16,6,0,7,0,3,6,5,11,5,13,8,5,0,5,9,7,8,7,10,0,0,6,0,0,8,11,0,0,4,5,14,0,0,0,8,1680.txt
5,16,8,8,0,13,4,6,12,5,0,5,5,5,9,4,9,6,0,9,9,0,0,4,4,9,10,9,0,5,0,6,8,8,8,7,7,23,18,6,0,11,9,9,0,0,6,5,4,16,0,0,5,1682.txt
5,16,8,8,0,13,4,0,15,5,0,0,5,5,9,4,0,6,0,0,0,0,0,0,8,8,10,0,0,5,0,6,8,7,0,7,7,14,14,6,0,11,9,9,0,0,6,5,4,8,0,0,0,1684.txt
5,12,10,12,0,16,5,0,4,5,0,0,5,5,0,4,0,0,0,0,0,0,3,0,3,10,23,0,0,5,6,0,8,7,0,26,8,8,0,6,17,9,10,9,0,0,6,6,0,14,0,0,0,1686.txt
5,12,10,12,0,16,5,0,4,0,9,0,5,5,0,4,0,0,0,0,6,5,3,0,3,10,29,0,9,4,6,0,8,19,17,26,8,8,17,7,8,9,11,9,0,0,6,6,0,14,0,7,0,1692.txt
5,12,10,12,0,16,5,0,15,0,0,0,5,5,0,4,0,0,0,0,0,0,3,0,3,10,29,0,9,5,6,0,8,8,10,26,8,14,0,6,8,9,11,9,0,0,6,6,0,14,0,7,0,1694.txt
5,12,10,12,0,16,5,6,15,5,9,5,5,5,0,4,0,0,0,0,6,0,3,0,3,10,29,0,4,5,6,0,8,8,0,26,8,17,17,7,7,9,11,9,0,0,6,6,7,14,0,7,0,1696.txt
5,12,10,12,0,16,5,6,15,0,4,7,5,5,0,4,0,0,0,13,9,0,0,4,3,10,27,0,4,5,6,0,8,8,8,26,8,12,11,6,7,9,10,9,0,0,6,6,0,14,0,0,6,1698.txt
5,12,8,7,0,13,4,0,4,5,0,0,26,0,0,0,0,16,0,0,0,0,3,0,5,6,5,0,8,5,0,0,7,7,0,7,10,0,0,6,9,7,9,11,0,0,5,5,13,0,0,0,0,1699.txt
5,12,10,12,0,16,5,0,15,0,0,0,5,5,0,4,0,0,0,9,6,0,3,0,3,10,29,22,9,5,6,0,8,8,0,26,8,12,0,6,10,9,11,9,0,0,6,6,0,14,0,7,5,1701.txt
5,12,10,11,0,13,4,0,15,5,0,0,5,5,0,4,0,0,0,9,6,0,3,12,3,9,12,0,0,5,6,0,8,7,0,12,7,8,12,6,0,10,9,9,0,0,6,5,4,8,22,6,5,1705.txt
5,12,10,12,0,16,5,0,4,5,0,0,5,5,0,4,0,0,0,0,0,0,3,0,3,10,26,0,0,5,6,0,8,0,0,25,8,8,0,6,0,9,9,9,0,0,6,6,0,14,0,6,0,1707.txt
5,12,10,12,0,16,5,0,4,5,4,0,5,5,0,4,0,0,0,0,7,0,3,10,3,10,30,0,4,4,6,0,8,0,8,26,8,8,17,7,7,9,7,9,0,0,6,6,0,14,20,7,6,1709.txt
5,12,10,12,0,16,5,0,4,5,0,0,5,5,0,4,0,0,0,0,6,0,3,0,3,10,29,0,5,5,6,0,8,0,23,26,8,8,0,6,8,9,11,9,0,0,6,6,0,14,0,6,0,1715.txt
5,12,10,11,0,17,4,0,15,0,0,0,5,5,0,4,0,6,0,9,9,0,3,4,3,9,13,16,0,5,6,6,8,7,8,14,7,12,0,6,0,9,9,9,0,0,6,5,4,8,0,6,5,1717.txt
5,12,10,12,0,16,5,6,4,5,9,5,5,5,0,4,0,0,0,28,9,0,0,4,3,10,29,0,9,4,6,0,8,0,19,26,8,8,17,7,10,9,11,9,0,0,6,6,7,14,0,7,7,1720.txt
5,12,10,12,0,16,5,0,4,5,9,0,5,5,0,4,0,0,0,0,0,0,3,0,3,10,29,0,4,4,6,6,8,0,0,26,8,8,17,7,7,9,11,9,0,0,6,7,5,14,0,7,0,1723.txt
5,12,10,12,0,16,5,0,4,0,4,0,5,5,0,4,0,0,0,0,6,0,3,8,3,10,29,0,4,5,6,6,8,20,9,26,8,8,0,6,7,9,11,9,0,0,6,8,5,14,0,7,6,1725.txt
5,12,10,12,0,16,5,0,4,0,0,0,5,5,0,4,0,0,0,0,6,0,3,0,3,10,29,0,9,5,6,6,8,8,0,26,8,8,0,6,8,9,11,9,0,0,6,7,5,14,0,7,0,1727.txt
0,9,10,11,0,17,5,0,15,5,0,0,17,0,0,0,0,6,0,0,6,0,3,0,3,9,13,11,0,5,6,0,8,7,0,28,7,26,0,6,0,9,8,9,0,0,6,5,10,8,0,6,0,1728.txt
5,12,10,12,0,16,5,6,4,0,4,7,5,5,0,4,0,0,0,0,6,5,3,0,3,10,29,0,4,5,6,0,8,8,17,26,8,19,11,6,7,9,11,9,0,0,6,6,0,14,0,7,0,1732.txt
5,12,10,12,0,16,5,0,15,0,9,0,5,5,0,4,0,18,0,0,6,5,3,0,3,10,29,0,9,4,6,0,8,8,0,26,8,12,21,7,8,9,11,9,0,0,6,6,0,14,0,7,0,1734.txt
5,12,8,7,0,10,4,0,0,5,0,0,17,0,0,0,0,16,0,10,0,0,3,0,5,4,5,22,0,5,0,5,6,7,0,7,10,0,0,6,0,0,9,11,0,0,8,5,14,0,0,0,0,1735.txt
5,12,10,11,0,16,5,0,4,5,0,0,27,0,0,0,0,6,0,10,0,0,3,0,3,9,13,0,0,5,6,6,8,7,0,28,7,8,0,6,0,9,9,9,0,0,6,5,10,8,0,6,0,1737.txt
5,12,10,12,5,16,5,5,15,5,13,7,10,0,0,8,0,6,0,0,6,0,3,0,3,10,29,0,9,5,6,0,8,23,10,26,8,14,17,7,8,9,13,9,7,0,6,12,0,14,7,7,0,1739.txt
5,12,10,12,0,16,5,5,12,5,0,8,17,0,0,0,0,0,0,10,0,0,3,0,4,10,26,11,4,5,6,6,8,7,6,26,8,11,0,6,7,9,10,9,7,0,6,11,5,14,7,0,0,1744.txt
5,12,10,12,0,16,5,21,11,0,4,8,5,5,0,4,0,0,0,0,0,0,3,0,4,10,29,9,4,8,6,6,8,8,17,26,8,23,26,7,7,9,11,9,0,0,6,7,5,21,19,7,0,1745.txt
5,12,10,12,0,16,5,0,15,0,0,0,12,0,0,0,0,0,0,0,7,0,3,4,3,10,17,29,0,5,6,0,8,7,8,26,8,12,0,6,0,9,9,9,0,0,6,0,0,14,0,0,8,1747.txt
5,12,8,8,0,13,4,21,12,5,0,8,7,5,0,4,0,6,0,0,6,0,3,12,4,9,8,9,0,5,0,0,8,7,15,7,7,23,12,6,0,7,9,9,0,0,6,5,6,17,16,11,0,1749.txt
7,9,10,12,5,16,5,5,16,0,0,0,12,0,0,0,0,8,0,11,7,0,3,4,4,10,24,9,8,5,6,0,8,7,6,26,8,26,12,6,24,9,8,9,7,0,6,10,12,16,7,8,8,1751.txt
4,19,4,4,4,5,3,4,3,4,9,17,4,3,5,8,0,10,0,0,0,0,3,18,4,10,30,8,4,6,6,0,8,8,10,26,8,9,17,7,7,9,7,9,0,0,6,12,19,21,0,7,0,1755.txt
5,12,10,12,0,16,5,0,4,0,9,0,5,5,0,4,0,0,0,10,0,5,3,10,3,10,30,0,9,4,6,6,8,19,0,26,8,8,17,5,8,9,7,9,0,0,6,7,11,14,5,7,0,1759.txt
5,12,10,11,0,16,5,6,15,5,0,5,12,0,0,0,0,6,0,9,9,0,0,4,3,10,15,0,0,5,6,0,8,7,8,28,7,14,8,6,0,9,8,9,0,0,6,5,10,8,0,0,5,1762.txt
5,16,10,12,5,16,5,5,9,5,15,5,5,5,9,4,9,0,0,9,6,7,4,8,4,10,29,9,9,4,6,6,8,8,17,26,8,12,7,5,25,9,11,9,7,5,6,7,5,17,20,7,7,1764.txt
5,12,10,11,0,17,6,21,10,0,0,8,5,4,0,0,0,6,0,0,6,0,3,0,4,9,13,9,0,5,6,6,8,7,0,14,7,23,13,6,0,9,9,9,0,0,6,5,4,18,0,6,0,1765.txt
5,16,10,12,0,16,5,6,12,5,0,5,5,5,9,4,9,8,0,28,9,0,3,4,4,10,17,9,8,0,6,0,8,8,6,20,7,23,8,0,9,9,9,9,0,0,6,5,10,16,16,13,5,1769.txt
5,12,10,12,0,16,5,0,15,5,0,0,5,5,0,4,0,6,0,0,7,0,3,4,3,10,17,0,4,5,6,0,8,7,6,26,8,17,12,6,7,9,9,9,0,0,6,6,0,14,15,6,8,1771.txt
5,12,10,12,0,16,5,6,15,0,4,5,5,5,0,4,0,8,0,9,7,0,0,10,3,10,30,29,4,4,6,0,8,8,17,26,8,12,17,5,7,9,7,9,0,0,6,6,7,14,5,7,7,1774.txt
5,12,10,12,0,16,5,0,15,0,4,0,5,5,0,4,0,0,0,0,6,0,3,0,4,10,25,0,4,5,6,6,8,7,6,26,8,14,0,6,7,9,10,9,0,0,6,7,5,14,0,6,0,1775.txt
5,12,10,12,0,16,5,0,4,5,4,0,5,5,0,4,0,0,0,13,6,0,3,0,3,10,29,0,4,5,6,0,8,15,17,26,8,8,17,7,7,9,11,9,0,0,6,6,0,14,0,7,0,1778.txt
5,12,21,9,0,13,4,21,13,0,0,12,5,5,0,4,0,6,0,10,6,0,0,12,3,9,10,11,0,5,6,6,8,7,0,10,7,23,15,6,0,10,9,9,0,0,6,5,4,8,0,0,0,1780.txt
5,12,10,12,0,16,5,6,15,0,9,7,5,5,0,8,0,0,0,9,9,0,3,4,3,10,29,0,9,5,6,0,8,8,17,26,8,14,17,7,10,9,11,9,0,0,6,6,0,14,0,7,7,1783.txt
5,12,10,12,0,16,5,0,15,0,0,0,5,5,0,4,0,0,0,0,0,0,3,0,3,10,23,11,0,5,6,6,8,7,0,26,8,22,0,6,9,9,9,9,0,0,6,7,5,14,0,6,0,1784.txt
5,12,8,9,0,13,4,0,4,5,0,0,7,5,0,0,0,6,0,10,0,0,3,0,3,9,8,0,0,5,0,0,8,7,6,7,10,8,0,6,0,7,9,0,0,0,6,5,6,8,0,6,0,1787.txt
5,12,10,11,0,17,5,6,4,5,0,5,5,5,0,4,0,8,0,11,8,0,0,8,3,9,14,0,8,5,6,6,8,7,6,17,7,8,8,6,9,9,9,9,0,0,6,5,10,8,0,0,8,1789.txt
5,12,10,11,0,13,4,0,4,0,0,0,5,5,0,4,0,0,0,0,6,7,3,0,3,9,12,0,0,5,6,0,8,7,6,12,7,8,12,6,9,10,9,9,0,0,6,5,4,8,0,6,0,1791.txt
5,12,10,12,0,16,5,21,11,5,0,8,5,5,0,4,0,0,0,0,0,0,3,0,4,10,29,9,12,5,6,6,8,8,10,26,8,23,0,6,8,9,11,9,0,0,6,7,5,21,0,7,0,1794.txt
6,8,10,11,0,13,4,0,15,0,0,0,5,5,0,4,0,6,0,0,0,0,3,0,3,9,12,9,0,5,6,0,8,7,0,12,7,12,0,6,0,10,9,9,0,0,6,5,4,21,16,6,0,1798.txt
3,5,3,3,3,4,2,3,2,3,9,3,3,2,4,4,0,8,0,0,8,5,3,10,15,10,30,5,4,9,6,6,8,6,8,26,9,27,26,5,7,9,12,9,0,6,6,7,16,16,5,7,6,1800.txt
5,12,10,11,0,14,4,0,15,0,0,0,5,5,0,4,0,6,0,0,0,0,3,0,4,9,12,0,0,5,6,6,8,7,0,13,7,17,0,6,0,10,9,9,0,0,6,5,4,8,0,6,0,1801.txt
5,12,10,12,0,16,5,0,4,0,0,0,5,5,0,4,0,0,0,0,0,0,3,0,3,10,23,0,0,5,6,0,8,7,0,26,8,8,0,6,14,9,10,9,0,0,6,6,0,14,0,0,0,1803.txt
5,12,10,12,0,16,5,21,24,0,0,8,5,5,0,4,0,0,0,0,0,0,3,0,4,10,27,10,0,5,6,6,8,8,10,26,8,10,0,6,8,9,11,9,0,0,6,7,5,14,16,6,0,1805.txt
5,12,10,12,0,16,5,0,4,0,4,0,5,5,0,4,0,0,0,0,0,8,3,10,4,10,30,0,4,4,6,6,8,8,17,26,8,8,17,5,7,9,7,9,0,0,6,8,11,14,5,7,0,1808.txt
5,12,5,14,0,7,8,6,0,9,0,15,23,0,0,0,0,15,6,4,0,4,3,0,5,11,0,0,0,5,0,9,0,7,0,7,10,0,11,6,0,0,9,11,0,0,7,5,14,0,0,6,0,1810.txt
5,12,10,11,5,17,5,5,15,0,0,0,5,5,0,4,0,6,0,10,0,0,3,0,3,9,13,11,8,5,6,0,8,7,10,17,7,22,12,6,9,9,9,9,7,0,6,5,10,8,7,0,0,1812.txt
5,12,10,12,0,16,5,0,4,0,0,0,5,5,0,4,0,0,0,0,0,0,3,0,4,10,29,0,7,5,6,6,8,19,10,26,8,8,0,6,22,9,10,9,0,0,6,7,5,14,0,7,0,1814.txt
5,12,10,12,0,16,5,0,4,0,4,0,5,5,0,4,0,8,0,10,6,7,3,10,3,10,30,0,4,4,6,6,8,0,17,26,8,8,17,5,7,9,7,9,0,0,6,7,11,14,14,7,0,1816.txt
5,16,10,12,5,16,5,5,12,0,15,8,19,5,9,4,9,12,0,10,6,7,3,0,4,10,30,9,9,4,6,0,8,8,10,26,8,23,17,5,8,9,11,9,7,5,6,6,9,20,21,7,0,1818.txt
5,12,10,11,0,17,5,0,9,5,0,0,5,5,0,0,0,6,0,9,7,0,3,4,3,9,13,29,0,5,6,6,8,7,8,14,7,12,0,6,0,9,9,9,11,0,6,5,10,8,16,6,5,1820.txt
5,12,10,10,0,13,4,0,15,0,0,0,12,0,0,0,0,6,0,11,7,0,3,4,3,9,10,14,0,5,0,0,8,7,8,10,7,12,0,6,0,10,9,9,0,0,6,5,6,8,0,0,8,1824.txt
5,12,10,12,0,16,5,6,15,5,0,5,5,5,0,4,0,0,0,0,6,0,3,0,3,10,27,0,0,5,6,0,8,8,0,26,8,19,8,6,14,9,10,9,0,0,6,6,7,14,0,6,0,1825.txt
6,8,10,11,0,16,5,0,15,5,0,0,17,0,0,0,0,6,0,10,6,0,3,0,4,9,15,15,0,5,6,0,8,7,0,28,7,12,0,6,20,9,9,9,0,0,6,5,10,8,0,8,0,1827.txt
5,16,10,12,0,6,5,9,5,13,4,6,5,4,9,4,0,6,0,10,6,0,3,0,4,10,29,8,4,5,6,6,8,6,17,26,8,28,12,9,7,9,11,9,0,0,6,7,5,21,0,7,0,1830.txt
5,12,10,12,0,16,5,0,4,0,0,0,5,5,0,4,0,0,0,0,0,0,3,0,3,10,17,0,0,5,6,6,8,7,6,20,7,8,0,6,9,9,9,9,0,0,6,7,5,14,0,0,0,1831.txt
5,12,10,12,0,16,5,0,4,5,9,0,5,5,0,4,0,0,0,0,0,0,3,0,3,10,29,0,9,4,6,0,8,0,0,26,8,8,1,7,8,9,11,9,0,0,6,6,0,1,1,7,0,1833.txt
5,12,10,12,0,16,5,21,28,0,9,8,5,5,0,4,0,0,0,10,6,0,3,0,4,10,29,9,9,6,6,0,8,8,10,26,8,10,17,7,8,9,11,9,0,0,6,6,12,19,15,7,0,1836.txt
5,12,10,12,0,16,5,0,15,0,4,0,5,5,0,4,0,0,0,0,6,5,3,10,3,10,30,0,4,4,6,6,8,8,0,26,8,17,17,5,7,9,7,9,0,0,6,8,11,14,5,7,0,1838.txt
5,16,10,12,0,16,5,5,12,5,14,5,5,17,9,10,10,17,9,3,4,18,6,17,13,21,3,30,14,2,4,4,15,5,29,4,11,29,6,10,28,12,9,9,7,5,6,7,5,16,17,7,5,1840.txt
5,12,10,12,0,16,5,6,4,5,0,7,5,5,0,4,0,6,0,11,6,0,3,0,3,10,20,0,0,5,6,6,8,23,6,25,8,8,11,6,0,9,9,9,0,0,6,7,5,14,0,6,0,1842.txt
5,12,10,12,0,16,5,0,4,5,4,0,5,5,0,4,0,0,0,0,6,0,3,3,3,10,29,0,4,4,6,6,8,0,0,26,8,8,17,7,7,9,7,9,0,0,6,7,5,14,0,7,0,1844.txt
5,12,10,12,5,16,5,5,4,0,7,0,9,5,0,4,0,0,0,0,6,0,3,0,3,10,29,0,9,4,6,0,8,0,17,26,8,8,17,7,8,9,11,9,7,0,6,6,0,14,7,7,0,1847.txt
6,18,10,12,0,16,5,0,15,5,0,0,5,5,0,0,0,0,0,10,6,0,3,0,3,10,17,0,0,5,6,0,8,7,6,21,7,17,0,6,0,9,9,9,0,0,6,6,10,14,0,0,0,1850.txt
5,12,10,12,0,16,5,0,4,0,9,0,5,5,0,4,0,0,0,0,7,7,3,10,3,10,30,0,4,4,6,0,8,19,17,26,8,8,17,5,7,9,7,9,0,0,6,6,0,14,14,7,6,1851.txt
5,12,8,13,0,13,4,0,4,5,0,0,5,5,0,4,0,0,0,10,0,7,3,0,3,9,10,0,8,5,6,0,8,7,6,7,7,20,0,6,0,7,9,9,0,0,6,5,4,8,0,0,0,1854.txt
5,12,10,12,0,16,5,0,15,0,0,0,5,5,0,0,0,6,0,7,6,0,3,0,3,10,26,0,0,5,6,0,8,7,0,26,8,14,12,6,0,9,10,9,0,0,6,6,0,14,0,0,0,1855.txt
5,12,10,12,0,16,5,0,4,0,9,0,5,5,0,4,0,0,0,0,6,7,3,0,3,10,29,0,4,5,6,0,8,0,24,26,8,8,14,6,7,9,11,9,0,0,6,6,0,14,0,7,0,1858.txt
5,12,10,12,0,16,5,5,15,5,0,0,24,0,0,0,0,0,0,0,0,3,3,0,3,10,26,0,0,5,6,0,8,7,6,26,8,17,12,6,24,9,8,9,7,0,6,12,0,14,15,0,0,1860.txt
5,12,10,11,0,14,4,0,15,0,0,0,5,8,0,4,0,6,0,9,7,0,3,4,3,9,12,12,0,5,6,6,8,7,8,12,7,14,0,6,0,10,9,9,0,0,6,5,4,8,0,0,5,1861.txt
5,12,13,5,0,20,4,0,0,5,0,0,7,5,0,0,0,16,0,0,6,0,0,0,5,11,5,0,0,5,0,6,9,7,0,7,10,0,0,6,0,0,9,11,0,0,8,5,13,0,0,0,0,1863.txt
5,12,10,12,0,16,5,0,4,0,4,0,5,5,0,8,0,0,0,11,6,0,3,0,3,10,29,12,4,5,6,0,8,8,0,26,8,18,17,7,7,9,11,9,0,0,6,6,0,14,0,7,0,1865.txt
5,12,10,12,0,16,5,6,4,5,9,7,5,5,0,4,0,0,0,0,9,0,3,4,3,10,29,0,9,5,6,0,8,10,8,26,8,19,17,7,8,9,11,9,0,0,6,6,7,14,0,7,6,1867.txt
5,16,10,12,0,16,5,5,4,5,0,0,5,5,9,4,0,0,0,9,6,0,4,8,3,10,17,0,4,5,6,6,8,20,9,20,8,8,0,6,7,9,9,9,0,0,6,7,5,14,10,0,5,1870.txt
5,12,10,12,0,16,5,6,15,0,0,7,5,5,0,4,0,0,0,10,6,0,3,0,3,10,27,0,0,5,6,0,8,8,0,26,8,19,23,6,17,9,10,9,0,0,6,6,18,14,0,0,0,1872.txt
5,16,8,9,0,13,4,0,15,0,0,0,5,5,9,4,8,8,0,0,6,0,0,0,3,9,10,0,8,5,6,0,8,7,0,8,7,19,0,6,9,7,9,9,0,0,6,5,4,8,0,0,0,1874.txt
5,12,10,12,0,16,5,0,4,0,0,0,5,5,0,14,0,0,0,10,6,0,3,0,3,10,26,0,0,5,6,6,8,0,6,26,8,8,0,6,0,9,10,9,0,0,6,7,5,14,0,0,0,1876.txt
5,12,10,12,0,16,5,21,5,0,9,8,5,8,0,4,0,0,0,0,6,0,3,0,7,10,29,5,9,5,6,0,8,8,17,26,8,10,17,7,8,9,11,10,0,0,6,6,12,21,0,7,0,1879.txt
5,12,10,12,0,16,5,23,15,0,9,0,10,0,0,8,0,0,0,0,6,5,3,9,3,10,30,13,9,4,6,0,8,8,10,26,8,12,17,7,8,9,7,9,0,0,6,12,0,14,18,7,0,1880.txt
5,12,10,11,0,17,5,0,15,0,0,0,17,0,0,0,0,6,0,0,6,0,3,8,3,9,13,0,0,5,6,6,8,7,0,14,7,14,0,6,0,9,9,9,0,0,6,5,10,8,0,0,0,1884.txt
5,12,10,12,0,16,5,21,12,0,9,9,5,5,0,8,0,0,0,0,0,7,3,0,4,10,29,9,9,4,6,6,8,8,17,26,8,23,17,7,8,9,11,9,0,0,6,6,0,21,0,7,0,1885.txt
5,12,10,12,0,16,5,0,4,0,9,0,5,5,0,4,0,0,0,0,6,0,3,10,3,10,30,0,4,4,6,6,8,10,17,26,8,19,17,5,7,9,7,9,0,0,6,7,11,14,5,7,0,1887.txt
5,12,10,12,0,16,5,0,4,5,9,0,10,0,0,8,0,6,0,10,6,3,3,5,3,10,29,0,4,4,6,0,8,0,21,26,8,8,30,7,7,9,11,9,1,1,6,11,0,14,0,7,0,1890.txt
5,12,10,12,0,16,5,0,4,0,0,0,5,5,0,4,0,0,0,10,6,0,3,0,4,10,29,0,5,5,6,6,8,10,0,26,8,8,0,6,8,9,11,9,0,0,6,8,5,14,0,0,0,1892.txt
5,12,10,12,0,16,5,0,15,0,0,0,5,5,0,4,0,0,0,10,6,0,3,0,4,10,17,13,0,5,6,6,8,7,0,20,7,12,0,6,20,9,9,9,0,0,6,5,10,14,0,0,0,1894.txt
5,12,10,11,0,16,5,6,20,0,0,5,16,0,0,0,0,0,0,11,6,0,0,0,4,10,15,9,0,5,6,0,8,7,6,19,7,10,8,6,0,9,9,9,0,0,6,5,10,18,16,11,0,1898.txt
9,19,4,21,10,5,11,4,3,10,0,17,4,3,5,4,9,6,0,10,6,7,0,0,12,18,6,8,0,5,0,0,6,6,6,7,7,0,8,6,0,7,9,9,0,0,6,5,4,21,15,0,0,1900.txt
5,12,10,12,0,16,5,0,15,5,0,0,5,5,0,4,0,0,0,0,0,0,3,0,4,10,27,0,0,5,6,6,8,8,0,26,8,18,0,6,0,9,10,9,0,0,6,7,5,14,0,6,0,1901.txt
5,12,10,12,0,16,5,0,4,5,0,0,5,5,0,6,0,0,0,9,6,0,3,0,3,10,20,0,0,5,6,6,8,7,6,26,8,8,0,6,0,9,9,9,0,0,6,6,0,14,0,0,5,1903.txt
6,8,10,12,0,16,5,0,15,5,0,0,12,0,0,0,0,7,0,0,7,0,3,4,3,10,17,0,0,5,6,0,8,7,6,26,8,17,0,6,0,9,9,9,0,0,6,12,0,14,0,0,8,1906.txt
6,8,10,11,0,17,5,21,12,0,0,10,5,8,0,4,0,0,0,0,0,0,3,0,4,9,15,9,0,5,6,6,8,7,27,19,7,23,13,6,0,9,9,9,0,0,6,5,10,21,0,0,0,1908.txt
5,12,10,12,0,16,5,0,15,5,0,0,5,5,0,4,0,10,0,10,6,0,3,0,3,10,26,0,0,5,6,6,8,7,10,26,8,13,0,6,0,9,10,9,0,0,6,6,0,14,0,6,0,1911.txt
4,26,4,20,4,5,3,4,3,4,16,1,2,1,3,9,4,3,9,1,1,12,2,2,14,1,1,3,14,2,4,12,12,5,4,5,6,6,6,10,26,5,1,2,0,5,6,6,18,15,21,1,1,1913.txt
5,12,10,11,0,16,5,0,4,5,0,0,5,5,0,4,0,6,0,10,6,0,3,0,3,10,17,0,0,5,6,0,8,7,6,21,7,8,0,6,0,9,9,9,0,0,6,5,10,14,0,6,0,1914.txt
6,8,10,12,0,16,5,21,10,0,2,8,5,4,9,3,10,3,4,3,4,2,2,2,2,12,3,30,2,2,3,4,12,4,5,4,6,6,6,10,6,6,12,9,0,5,6,2,1,15,21,7,0,1916.txt
5,16,10,11,0,17,4,0,15,0,0,0,5,5,9,4,8,6,0,7,6,0,3,0,3,9,15,29,0,5,6,0,8,7,0,17,7,12,0,6,0,9,9,9,0,0,6,5,4,12,0,0,0,1919.txt
5,16,10,12,0,16,5,0,15,0,0,0,5,5,9,4,0,0,0,9,7,0,3,4,3,10,26,0,0,5,6,6,8,8,8,26,8,14,0,6,0,9,10,9,0,0,6,7,5,14,0,6,5,1921.txt
5,12,10,11,5,16,5,5,15,0,0,0,5,5,0,4,0,0,0,0,6,7,3,8,3,9,17,0,0,5,6,6,8,7,6,20,7,17,0,6,9,9,9,9,7,0,6,5,10,14,7,6,0,1923.txt
5,12,10,12,0,16,5,0,15,0,0,0,17,0,0,0,0,18,0,0,6,0,3,0,4,10,17,14,8,5,6,0,8,7,26,29,7,12,0,6,20,9,8,9,0,0,6,0,0,14,19,6,0,1926.txt
5,12,10,12,0,16,5,0,15,0,0,0,5,5,0,4,0,6,0,10,6,0,3,0,3,10,21,15,0,5,6,0,8,7,6,26,8,12,0,6,0,9,9,9,0,0,6,6,0,14,0,0,0,1928.txt
5,12,10,12,0,16,5,0,15,0,9,0,5,5,0,4,0,0,0,11,6,0,3,10,4,10,30,0,9,4,6,6,8,8,17,26,8,13,20,7,8,9,7,9,0,0,6,8,11,14,5,7,0,1930.txt
5,12,10,11,0,13,4,6,15,0,0,5,5,5,0,4,0,0,0,0,6,0,3,0,4,9,12,15,0,5,6,6,8,7,10,12,7,12,8,6,0,10,9,9,0,0,6,5,4,8,19,6,0,1932.txt
5,12,10,12,0,16,5,0,15,0,9,0,10,11,0,8,0,0,0,0,0,0,3,9,3,10,30,9,9,4,6,0,8,8,0,26,8,12,17,7,8,9,12,9,0,0,6,6,0,21,5,7,0,1934.txt
5,12,10,12,0,16,5,0,15,5,0,0,5,5,0,0,0,10,0,10,0,0,3,0,3,10,17,0,0,5,6,0,8,7,0,21,7,17,0,6,14,9,9,9,0,0,6,6,10,14,0,6,0,1937.txt
5,12,10,12,0,16,5,6,4,0,4,7,5,5,0,4,0,0,0,10,8,0,3,8,3,10,29,0,4,4,6,0,8,8,8,26,8,8,17,7,7,9,11,9,0,0,6,6,8,14,0,7,6,1938.txt
5,12,10,11,0,16,5,6,15,5,0,5,12,0,0,0,0,6,0,9,7,0,0,4,3,10,15,0,0,5,6,0,8,7,8,19,7,17,8,6,0,9,9,9,0,0,6,5,10,8,0,0,5,1941.txt
5,12,10,12,0,16,5,6,4,0,0,5,5,5,0,4,0,0,0,0,6,0,3,0,4,10,29,0,7,5,6,6,8,15,0,26,8,8,8,6,8,9,11,9,0,0,6,8,5,14,0,7,0,1942.txt
5,12,10,12,0,16,5,6,4,0,9,5,5,5,0,4,0,0,0,0,8,0,3,8,3,10,29,0,9,4,6,6,8,0,8,26,8,8,17,7,8,9,11,9,0,0,6,7,5,14,0,7,6,1944.txt
5,12,8,8,0,13,4,0,15,5,0,0,7,8,0,4,0,6,0,0,6,7,3,0,5,8,8,9,0,5,0,6,8,7,6,7,10,12,0,6,0,11,9,11,0,0,6,5,6,21,0,6,0,1947.txt
5,12,10,12,0,16,5,0,15,0,0,0,5,5,0,4,0,6,0,0,0,0,3,0,3,10,27,0,0,5,6,0,8,8,0,26,8,24,0,6,14,9,10,9,0,0,6,6,0,14,0,6,0,1948.txt
6,8,10,12,0,16,5,0,9,5,0,0,5,5,0,4,0,6,0,0,0,0,3,0,4,10,26,9,4,5,6,6,8,8,6,26,8,12,0,6,7,9,10,9,11,0,6,7,5,4,16,6,0,1951.txt
5,12,10,11,0,16,5,0,9,0,0,0,17,26,0,0,0,6,0,9,6,3,3,0,3,10,17,13,0,5,6,0,8,7,6,21,7,12,0,6,13,9,9,9,8,0,6,5,10,14,0,4,4,1952.txt
5,12,10,12,0,16,5,21,12,0,9,9,18,0,0,8,0,0,0,9,7,0,0,4,4,10,29,11,4,5,6,15,8,8,24,26,8,11,20,6,7,9,11,9,0,0,6,9,5,14,0,7,9,1954.txt
5,12,10,11,0,17,5,21,10,0,0,8,5,5,0,4,0,0,0,0,0,0,3,0,3,9,15,11,8,5,6,0,8,7,6,19,7,23,0,6,0,9,9,9,0,0,6,5,10,8,15,0,0,1956.txt
5,12,10,12,0,16,5,0,15,0,9,0,5,5,0,4,0,0,0,0,0,7,3,0,3,10,29,0,9,5,6,0,8,23,17,26,8,12,21,7,8,9,11,9,0,0,6,6,0,14,0,7,0,1959.txt
5,16,10,12,0,16,5,21,8,0,4,8,5,4,9,4,9,8,0,0,6,7,3,3,4,10,30,9,4,4,6,6,8,8,17,26,8,10,25,0,7,9,12,9,0,5,6,7,16,15,21,7,6,1961.txt
5,12,10,12,0,16,5,23,10,0,9,8,10,0,0,8,0,11,0,10,7,3,0,9,3,10,30,9,4,4,6,0,8,8,21,26,8,23,21,7,7,9,7,9,0,0,6,10,0,16,0,7,6,1964.txt
6,8,10,11,0,16,5,0,4,5,4,0,5,5,9,4,0,6,0,11,6,0,3,0,3,9,15,0,4,5,6,0,8,7,6,19,7,20,12,6,7,9,9,9,0,0,6,5,10,8,13,0,0,1965.txt
5,12,10,11,0,16,5,0,15,0,0,0,5,5,0,4,0,6,0,9,9,0,3,4,4,10,17,0,6,5,6,6,8,7,8,20,7,14,0,6,7,9,9,9,0,0,6,5,10,14,0,0,5,1970.txt
5,16,10,11,0,16,5,0,15,5,0,0,5,5,9,4,0,0,0,10,6,0,3,0,3,9,15,13,8,5,6,0,8,7,0,20,7,12,0,6,9,9,9,9,0,0,6,5,10,14,0,0,0,1973.txt
5,12,10,11,0,14,4,21,10,0,0,8,5,5,0,4,0,6,0,0,6,0,3,0,4,9,12,9,0,5,6,0,8,7,6,12,7,23,12,6,0,10,9,9,0,0,6,5,4,21,0,0,0,1974.txt
5,12,10,12,0,16,5,6,4,0,0,5,5,5,0,4,0,0,0,0,9,0,3,4,3,10,27,0,8,5,6,0,8,0,6,26,8,19,8,6,22,9,10,9,0,0,6,6,7,14,0,6,6,1976.txt
5,12,10,12,0,16,5,0,4,5,0,0,5,5,0,4,0,14,0,0,6,0,3,0,3,10,17,0,0,5,6,0,8,7,0,26,7,8,0,6,0,9,9,9,0,0,6,6,0,14,0,6,0,1979.txt
6,8,10,12,0,16,5,0,15,5,4,0,5,5,0,4,0,0,0,0,6,0,3,0,3,10,27,0,4,5,6,0,8,12,0,26,8,17,0,6,7,9,10,9,0,0,6,6,0,14,0,0,0,1981.txt
5,12,10,12,6,6,5,6,21,8,9,6,5,5,0,4,0,6,0,0,6,14,3,10,4,10,30,6,4,4,6,6,8,6,17,26,9,27,20,5,7,9,7,9,0,6,6,7,11,14,14,7,6,1983.txt
5,16,10,12,0,16,5,6,24,0,0,5,5,5,9,4,9,8,0,0,6,0,3,0,4,10,4,9,9,5,6,6,8,8,6,26,8,10,18,9,8,9,10,9,0,5,6,7,5,19,16,7,0,1984.txt
5,16,10,12,5,16,5,5,11,5,2,8,19,17,9,9,4,3,2,1,2,17,2,2,14,22,3,30,14,2,4,13,12,5,29,5,6,6,6,10,26,1,1,3,10,5,6,7,16,14,4,1,1,1986.txt
5,16,8,8,0,13,4,21,10,0,0,8,5,4,9,4,0,6,0,0,0,0,3,0,8,8,8,27,0,5,0,6,8,7,6,7,7,23,13,6,0,11,9,10,0,0,6,5,4,21,0,0,0,1989.txt
5,12,10,12,0,16,5,0,15,0,0,0,5,5,0,4,0,0,0,8,6,0,3,0,3,10,26,0,4,5,6,6,8,8,0,26,8,17,0,6,7,9,10,9,0,0,6,7,5,14,0,0,0,1991.txt
5,12,10,12,0,16,5,0,4,5,5,0,5,5,0,4,0,6,0,0,6,7,3,0,3,10,29,0,9,5,6,6,8,17,17,26,8,8,0,6,8,9,11,9,0,0,6,7,5,14,8,7,0,1992.txt
5,12,10,12,0,16,5,5,4,0,9,0,5,5,0,4,0,0,0,0,6,0,3,0,4,10,29,0,9,5,6,6,8,8,10,26,8,8,17,7,8,9,11,9,0,0,6,7,5,14,11,7,0,1995.txt
5,12,10,12,5,16,5,5,15,5,15,0,5,5,0,4,0,0,0,10,0,0,3,0,3,10,29,9,4,5,6,0,8,8,24,26,8,12,0,6,7,9,11,9,7,0,6,6,0,21,16,7,0,1997.txt
5,12,10,12,0,16,5,21,12,0,0,9,5,8,0,4,0,6,0,9,9,0,3,4,4,10,17,9,0,5,6,6,8,7,8,26,8,23,25,6,0,9,9,9,0,0,6,7,5,16,0,6,5,1999.txt
5,16,10,11,0,14,4,6,15,0,0,7,5,5,9,4,9,0,0,0,0,0,3,0,3,9,17,29,8,5,6,6,8,8,10,13,7,12,11,6,9,10,9,9,0,0,6,5,4,11,0,13,0,2001.txt
5,12,11,9,0,13,4,0,15,5,0,0,17,0,0,0,0,6,0,10,6,0,3,0,4,9,9,15,8,5,0,6,8,7,6,9,7,12,0,6,0,10,9,9,0,0,6,5,6,8,0,14,0,2005.txt
5,12,10,12,0,16,5,6,15,0,0,7,5,5,0,4,0,6,0,10,6,0,3,0,4,10,17,29,4,5,6,6,8,7,0,26,7,12,11,6,7,9,9,9,0,0,6,7,5,14,0,10,0,2007.txt
5,12,10,12,0,16,5,0,9,0,0,0,5,5,0,0,0,18,0,11,6,0,3,0,3,10,26,16,8,5,6,0,8,7,6,26,8,12,15,6,16,9,10,9,11,0,6,6,0,14,0,12,0,2008.txt
5,16,5,23,0,7,0,6,15,5,0,5,5,5,9,4,9,6,0,9,9,0,3,4,0,0,4,0,0,5,0,0,0,0,8,7,7,7,8,9,2,0,9,9,0,5,0,5,4,5,15,0,5,2012.txt
5,16,10,12,0,16,5,6,15,5,17,5,5,17,9,9,10,24,9,3,4,18,2,1,13,2,3,30,14,2,4,4,5,5,5,5,6,6,6,10,6,12,11,9,0,5,6,6,20,14,17,1,1,2015.txt
5,12,10,12,0,16,5,6,4,5,0,5,5,5,0,4,0,0,0,10,0,7,0,0,3,10,17,0,0,5,6,6,8,7,6,26,7,8,8,6,0,9,9,9,0,0,6,7,5,14,0,0,0,2017.txt
5,12,10,12,0,16,5,0,4,0,0,0,5,5,0,4,0,0,0,9,9,0,3,4,3,10,27,0,0,5,6,6,8,0,22,26,8,8,16,6,16,9,10,9,0,0,6,7,5,14,0,0,5,2020.txt
5,12,10,12,0,16,5,0,4,5,9,0,5,5,0,4,0,0,0,0,0,0,3,0,3,10,29,0,9,4,6,0,8,0,17,26,8,8,17,7,8,9,11,9,0,0,6,6,0,14,0,7,0,2022.txt
5,12,10,12,0,16,5,6,10,0,0,8,5,5,0,4,0,0,0,0,6,0,3,0,3,10,17,9,0,5,6,0,8,7,6,21,7,23,11,6,0,9,9,9,0,0,6,6,10,21,0,0,0,2024.txt
5,12,10,12,0,16,5,0,4,5,0,0,5,5,0,8,0,8,0,11,6,7,3,0,3,10,29,0,0,5,6,6,8,20,24,26,8,8,0,6,8,9,11,9,0,0,6,7,5,14,0,0,0,2026.txt
5,12,10,11,0,17,4,0,15,5,0,0,5,5,0,4,0,6,0,10,6,0,3,0,3,9,13,0,0,5,6,0,8,7,0,14,7,8,0,6,0,9,9,9,0,0,6,5,4,8,0,0,0,2029.txt
6,8,8,8,0,13,4,21,10,0,0,8,5,5,0,4,0,6,0,0,9,0,3,4,4,9,8,9,8,5,0,0,8,7,8,7,12,23,12,6,9,7,9,9,0,0,6,5,6,16,15,13,8,2031.txt
5,12,10,12,0,16,5,5,4,5,4,0,5,5,0,4,0,0,0,0,7,0,3,4,4,10,29,0,4,4,6,6,8,0,17,26,8,8,17,7,7,9,11,9,0,0,6,7,5,14,11,7,6,2032.txt
5,12,10,12,0,16,5,0,4,5,0,0,5,5,0,4,0,6,0,0,7,0,3,8,3,10,26,0,0,5,6,0,8,20,8,26,8,8,0,6,0,9,10,9,0,0,6,6,0,14,0,6,8,2034.txt
5,12,10,12,0,16,5,0,4,0,0,0,18,0,0,8,0,0,0,9,7,0,3,4,3,10,29,0,0,5,6,6,8,10,8,26,8,8,0,6,10,9,11,9,0,0,6,9,5,14,0,0,9,2037.txt
5,12,8,7,0,13,4,21,11,0,0,8,17,0,0,0,0,16,0,10,6,0,3,0,5,6,6,9,0,5,0,0,8,7,6,7,10,0,12,6,0,7,9,11,0,0,5,5,14,21,22,6,0,2038.txt
6,8,13,5,0,20,4,14,0,0,0,0,7,5,0,4,0,16,0,9,6,0,3,8,5,11,5,11,0,5,0,5,9,7,9,7,10,0,0,6,0,0,9,11,0,0,4,5,14,0,0,6,5,2040.txt
5,12,10,11,0,16,5,0,15,5,0,0,5,5,0,4,0,0,0,9,7,0,3,8,4,10,17,0,0,5,6,6,8,7,6,20,7,14,0,6,9,9,9,9,0,0,6,5,10,14,0,6,5,2043.txt
5,16,10,12,0,16,5,0,15,0,0,0,5,5,9,4,0,0,0,0,6,0,3,0,3,10,29,16,9,5,6,0,8,8,14,26,8,12,0,9,8,9,10,9,0,0,6,6,0,14,0,7,0,2045.txt
5,12,10,11,5,16,5,5,11,0,0,8,9,5,0,4,0,7,0,9,9,0,3,4,3,10,15,9,8,5,6,0,8,7,8,20,7,23,25,6,9,9,9,9,7,0,6,5,10,16,7,0,5,2049.txt
5,12,10,11,0,15,4,6,15,0,4,7,17,0,0,0,0,0,0,10,6,0,0,0,3,9,12,29,6,5,6,0,8,7,6,14,7,12,10,6,21,9,9,9,0,0,6,5,4,8,0,0,0,2052.txt
5,12,10,12,0,16,5,0,15,0,0,0,5,5,0,4,0,0,0,0,0,0,3,0,4,10,27,16,5,5,6,6,8,8,6,26,8,12,0,6,8,9,10,9,0,0,6,8,5,14,0,0,0,2053.txt
5,12,10,12,0,16,5,0,15,0,0,0,5,5,0,4,0,0,0,10,6,0,3,0,3,10,27,19,0,5,6,6,8,8,6,26,8,14,0,6,22,9,10,9,0,0,6,7,5,14,0,0,0,2055.txt
5,12,10,12,0,16,5,0,15,5,0,0,5,5,0,4,0,0,0,0,6,0,3,0,3,10,29,11,8,5,6,6,8,8,22,26,8,26,0,6,8,9,11,9,0,0,6,7,5,14,0,13,0,2057.txt
5,12,10,12,0,16,5,0,4,0,9,0,5,5,0,4,0,0,0,0,6,0,3,10,4,10,30,0,9,4,6,6,8,14,0,26,8,8,17,5,8,9,7,9,0,0,6,8,11,14,5,7,0,2060.txt
5,12,10,12,0,16,5,0,15,5,4,0,5,5,0,4,0,0,0,10,0,0,3,0,4,10,29,15,4,5,6,6,8,8,24,26,8,12,0,6,7,9,11,9,0,0,6,8,5,14,0,7,0,2062.txt
5,12,10,12,0,16,5,29,14,5,0,10,5,8,0,4,0,6,0,10,6,0,3,12,4,10,17,9,0,5,6,0,8,7,6,21,7,23,12,6,0,9,9,9,0,0,6,5,10,17,0,0,0,2066.txt
5,12,10,11,0,14,4,0,15,0,0,0,5,8,0,4,0,0,0,9,6,0,3,8,3,9,13,19,8,5,6,6,8,7,9,12,7,13,0,6,9,10,9,9,0,0,6,5,4,8,12,0,5,2067.txt
5,12,10,11,0,17,5,0,15,0,0,0,5,5,0,4,0,6,0,9,7,0,3,4,3,9,15,11,0,5,6,6,8,7,6,20,7,22,15,6,0,9,9,9,0,0,6,5,10,8,0,0,5,2069.txt
5,12,10,12,0,16,5,5,15,5,0,0,5,5,0,4,0,12,0,8,0,0,3,0,3,10,17,0,0,5,6,6,8,7,6,26,8,14,0,6,11,9,9,9,0,0,6,7,5,14,10,0,0,2072.txt
0,0,10,12,0,16,5,0,15,5,0,0,12,0,0,8,0,0,0,0,7,3,3,4,3,10,27,0,0,5,6,0,8,8,24,26,8,14,12,6,0,9,14,9,0,0,6,12,0,14,0,6,6,2074.txt
5,12,10,12,5,16,5,5,4,5,4,0,5,5,0,4,0,6,0,0,6,5,3,8,4,10,29,0,4,5,6,6,8,0,17,26,8,8,17,7,7,9,11,9,7,0,6,7,5,14,7,7,6,2078.txt
5,12,10,12,0,16,5,0,15,5,4,0,5,5,0,4,0,0,0,0,6,0,3,5,3,10,27,0,4,5,6,0,8,8,0,26,8,14,0,6,7,9,10,9,0,0,6,6,0,14,0,6,0,2080.txt
6,18,10,11,0,16,5,0,15,0,0,0,5,5,0,0,0,0,0,0,6,0,3,0,3,10,15,11,0,5,6,0,8,7,6,19,7,22,0,6,0,9,9,9,0,0,6,5,10,8,0,6,0,2083.txt
5,12,10,12,0,16,5,6,4,0,9,7,5,5,0,4,0,0,0,0,7,0,3,8,3,10,29,0,9,4,6,0,8,8,17,26,8,18,17,7,8,9,11,9,0,0,6,6,18,14,0,7,6,2085.txt
5,12,10,12,0,16,5,0,15,0,0,0,5,5,0,0,0,6,0,9,7,0,3,4,4,10,17,12,0,5,6,6,8,7,6,26,7,17,0,6,0,9,9,9,0,0,6,7,5,14,0,11,5,2087.txt
5,12,10,12,0,16,5,7,4,0,9,0,5,5,0,4,0,0,0,10,7,0,3,4,3,10,29,0,9,4,6,0,8,25,17,26,8,19,17,7,8,9,11,9,0,0,6,6,0,14,0,7,6,2090.txt
5,12,10,12,0,16,5,0,15,0,10,0,5,5,0,8,0,0,0,11,6,7,3,0,3,10,29,0,12,5,6,0,8,9,24,26,8,14,17,6,8,9,11,9,0,0,6,6,0,14,0,7,0,2092.txt
5,16,10,12,5,16,5,5,5,5,0,8,5,5,9,4,9,6,0,0,0,0,3,0,4,10,27,8,5,5,6,0,8,13,7,26,8,9,11,8,0,9,10,9,7,0,6,6,19,4,7,6,0,2093.txt
5,16,10,12,0,16,5,0,15,5,4,0,5,5,9,4,0,0,10,9,7,7,3,10,4,10,30,0,4,4,6,0,8,20,17,26,8,17,21,5,7,9,7,9,0,5,6,6,19,14,21,7,7,2096.txt
5,12,10,12,0,16,5,6,15,0,4,5,5,5,0,4,0,18,0,0,6,0,3,8,4,10,27,0,4,5,6,16,8,8,8,26,8,16,8,6,7,9,10,9,0,0,6,8,5,14,0,6,6,2098.txt
6,10,10,12,0,16,5,21,10,0,0,8,5,5,9,4,9,8,0,0,6,0,3,0,4,10,29,1,1,11,6,6,8,21,17,1,1,1,1,0,1,1,16,12,1,1,6,1,1,1,1,1,1,2099.txt
5,12,10,11,0,13,4,6,12,0,0,11,5,8,0,4,0,0,0,10,6,0,3,0,3,9,12,9,0,5,6,0,8,7,0,12,7,23,11,6,20,10,9,9,0,0,6,5,4,18,0,0,0,2101.txt
5,12,10,12,0,16,5,0,15,0,0,0,17,0,0,8,0,8,0,10,6,0,3,5,3,10,27,15,0,5,6,0,8,8,26,26,8,12,0,6,8,9,8,9,0,0,6,11,0,14,15,6,0,2103.txt
5,12,10,11,0,15,4,12,14,0,0,0,5,5,0,4,0,6,0,11,7,0,0,4,3,9,12,9,0,5,6,6,8,7,8,14,7,23,0,6,0,9,9,9,0,0,6,5,4,16,16,11,8,2105.txt
5,12,10,11,0,17,6,0,15,0,0,0,5,5,0,4,0,13,0,0,6,0,3,0,3,9,13,0,0,5,6,0,8,7,6,14,7,14,0,6,0,9,9,9,0,0,6,5,4,8,0,6,0,2107.txt
5,12,10,12,0,16,5,6,15,0,9,7,18,26,0,8,0,0,0,0,6,0,3,0,3,10,29,15,4,5,6,0,8,8,30,26,8,12,17,7,7,9,14,9,0,0,6,12,18,14,0,7,0,2110.txt
5,12,10,12,0,16,5,21,12,0,0,8,5,5,0,4,0,6,0,10,6,0,3,0,4,10,27,11,0,5,6,6,8,8,6,26,8,23,0,6,0,9,10,9,0,0,6,6,9,14,0,0,0,2113.txt
5,12,10,11,0,16,5,0,9,0,0,0,13,0,0,0,0,6,0,10,7,3,3,8,4,10,15,0,0,5,6,0,8,7,6,30,7,17,0,6,0,9,0,9,11,0,6,5,10,8,0,6,8,2114.txt
5,12,8,9,0,13,4,0,15,0,0,0,5,8,0,4,0,6,0,0,0,0,3,0,3,9,9,24,0,5,0,0,8,7,0,8,7,12,13,6,0,7,9,9,0,0,6,5,6,8,0,6,0,2117.txt
5,12,10,11,0,16,5,0,15,5,0,0,5,5,0,0,0,6,0,10,6,0,3,0,3,10,15,0,0,5,6,6,8,7,6,30,7,17,0,6,0,9,9,9,0,0,6,5,10,8,0,0,0,2119.txt
5,12,10,12,0,16,5,0,15,0,0,0,5,5,0,4,0,0,0,0,6,0,3,0,3,10,27,0,0,5,6,0,8,8,22,26,8,12,0,6,8,9,10,9,0,0,6,6,0,14,0,9,0,2121.txt
5,16,10,12,0,16,5,21,19,0,14,8,5,17,9,9,10,3,9,3,4,18,2,2,9,22,3,30,14,2,4,12,5,5,29,4,6,6,6,10,26,12,12,9,11,5,6,7,9,15,21,7,6,2122.txt
5,12,10,11,5,17,4,5,15,5,0,0,13,11,0,0,0,6,0,9,7,0,3,4,3,9,13,0,0,5,6,0,8,7,8,14,7,14,12,6,19,9,9,9,7,0,6,5,4,8,7,6,5,2125.txt
5,12,10,12,0,16,5,0,15,5,0,0,17,0,0,0,0,6,0,0,6,0,3,5,3,10,27,11,0,5,6,0,8,8,7,26,8,22,12,6,8,9,10,9,0,0,6,12,0,14,0,6,0,2126.txt
5,12,10,12,0,16,5,0,15,0,0,0,5,5,0,4,0,0,0,10,0,0,3,0,3,10,27,0,0,5,6,0,8,8,0,26,8,19,0,6,20,9,10,9,0,0,6,6,0,14,0,10,0,2129.txt
5,12,10,12,5,16,5,5,15,5,0,0,5,5,0,4,0,0,0,0,0,0,3,0,4,10,29,0,9,5,6,6,8,8,6,26,8,12,0,6,22,9,10,9,7,0,6,8,5,14,7,7,0,2130.txt
5,12,10,11,0,16,5,17,15,5,0,10,15,0,0,0,0,0,0,0,6,0,3,8,3,10,17,9,0,5,6,0,8,7,6,21,7,12,0,6,0,9,0,9,0,0,6,5,10,17,0,6,8,2133.txt
5,12,10,12,5,16,5,5,15,0,0,5,12,0,0,0,0,0,0,0,7,0,3,4,3,10,17,0,0,5,6,0,8,7,8,21,7,17,9,6,9,9,9,9,7,0,6,0,10,14,7,0,8,2135.txt
5,12,11,9,0,13,4,0,15,0,0,0,5,5,0,4,0,6,0,0,0,0,3,0,3,9,10,0,0,5,0,0,8,7,0,9,7,14,0,6,0,10,9,9,0,0,6,5,4,8,0,0,0,2137.txt
5,12,10,11,0,16,5,6,4,5,0,5,5,5,0,4,0,6,0,9,7,0,0,4,3,9,15,0,6,5,6,0,8,7,8,19,7,8,8,6,7,9,9,9,0,0,6,5,10,8,0,0,5,2139.txt
6,8,10,12,0,16,5,21,12,0,0,9,5,5,0,4,0,0,0,0,0,0,3,0,3,10,17,9,0,5,6,0,8,7,0,26,8,23,0,6,0,9,9,9,0,0,6,6,0,4,0,6,0,2141.txt
5,12,10,12,0,16,5,6,15,5,4,5,5,5,0,4,0,6,0,9,9,0,0,4,3,10,29,0,4,5,6,0,8,10,17,26,8,17,8,6,7,9,11,9,0,0,6,6,7,14,0,7,9,2142.txt
5,16,10,12,0,16,5,5,15,0,9,5,5,5,9,4,9,18,0,27,9,7,4,4,4,10,29,15,9,11,6,6,8,8,17,26,8,12,7,5,1,1,6,12,10,5,6,1,5,14,4,1,1,2145.txt
5,12,10,11,0,15,4,6,15,0,0,7,12,0,0,0,0,6,0,0,9,0,3,4,3,9,12,0,8,5,6,0,8,7,8,14,7,12,10,6,0,9,9,9,0,0,6,5,4,8,19,13,8,2147.txt
5,12,10,12,0,16,5,0,4,5,0,0,5,5,0,6,0,6,0,0,6,0,3,0,3,10,17,0,0,5,6,0,8,7,6,20,7,8,0,6,0,9,9,9,0,0,6,6,10,14,0,6,0,2149.txt
6,8,10,11,0,17,6,0,15,5,0,0,5,5,0,4,0,6,0,0,0,0,3,0,3,9,13,0,6,5,6,0,8,7,0,14,7,14,0,6,21,9,9,9,0,0,6,5,4,8,0,0,0,2151.txt
4,6,4,19,10,5,3,4,3,4,4,17,4,3,5,4,0,18,0,0,0,0,3,0,7,10,29,5,4,5,6,6,8,6,10,26,8,9,13,6,7,9,11,9,0,6,6,6,9,21,0,7,0,2153.txt
5,12,10,12,0,6,5,9,5,13,0,6,5,5,0,4,0,8,0,0,6,0,3,0,4,10,27,8,0,5,6,6,8,6,6,26,8,9,0,6,0,9,10,9,0,0,6,8,5,14,0,0,0,2154.txt
5,12,8,9,0,13,4,21,7,0,0,8,5,8,0,0,0,6,0,0,6,0,3,8,4,9,9,9,0,5,0,0,8,7,9,8,7,10,12,6,0,7,9,9,0,0,6,5,6,17,15,6,8,2156.txt
0,9,10,12,0,16,5,0,9,5,0,0,17,0,0,8,0,6,0,10,0,0,3,0,3,10,27,0,4,5,6,0,8,8,15,26,8,24,0,6,7,9,11,9,11,0,6,12,0,14,0,6,0,2160.txt
5,12,10,12,0,16,5,6,15,0,0,7,5,5,0,4,0,6,0,0,0,0,3,0,3,10,17,0,0,5,6,0,8,7,0,26,8,14,11,6,0,9,9,9,0,0,6,6,0,14,0,6,0,2161.txt
5,16,10,12,5,16,5,5,15,0,13,0,5,5,9,4,9,6,0,10,6,5,3,5,3,10,29,0,4,7,6,0,8,14,10,26,8,14,12,0,7,9,11,9,7,5,6,6,0,14,7,7,0,2165.txt
5,16,10,12,0,16,5,20,15,5,0,5,5,5,9,4,9,0,0,10,8,0,3,8,3,10,29,0,9,0,6,0,8,8,8,26,8,14,8,0,2,9,9,9,1,1,6,6,7,14,9,7,6,2166.txt
5,12,10,12,5,16,5,5,15,0,15,0,5,5,0,4,0,0,0,9,9,0,3,4,3,10,29,9,9,4,6,0,8,8,17,26,8,12,17,7,10,9,11,9,7,0,6,6,0,16,7,7,7,2168.txt
5,16,10,12,0,16,5,0,4,0,0,0,5,5,9,4,0,0,0,10,7,0,3,8,4,10,29,0,9,5,6,6,8,10,8,26,8,8,0,9,8,9,11,9,0,0,6,8,5,14,0,7,6,2171.txt
5,12,21,9,0,13,4,0,15,5,0,0,25,0,0,0,0,0,0,10,6,0,3,0,3,9,10,0,0,5,0,6,8,7,0,10,7,19,12,6,0,10,9,9,0,0,6,5,6,8,0,0,0,2173.txt
5,12,10,11,0,13,4,6,15,5,0,7,5,5,0,4,0,0,0,0,6,0,3,0,3,9,12,0,0,5,6,0,8,7,27,12,7,17,11,6,0,10,9,9,0,0,6,5,4,8,0,6,0,2176.txt
5,12,10,12,0,16,5,6,4,0,4,5,0,0,0,0,0,0,0,10,6,0,3,0,4,10,27,0,4,5,6,6,8,7,7,26,8,8,8,6,7,9,14,9,0,0,6,11,5,14,0,6,0,2177.txt
5,12,10,11,0,14,4,21,10,0,0,8,5,13,0,4,0,0,0,0,6,0,3,0,7,9,12,5,0,5,6,15,8,7,27,13,7,23,13,6,0,10,9,10,0,0,6,5,4,21,0,0,0,2179.txt
5,12,10,12,0,16,5,0,4,5,0,0,0,0,0,0,0,6,0,10,6,0,3,0,3,10,17,0,0,5,6,0,8,7,0,26,8,8,0,6,0,9,9,9,0,0,6,12,0,14,0,6,0,2181.txt
5,12,10,12,0,16,5,0,15,0,4,0,5,5,0,4,0,0,0,0,7,0,3,8,3,10,27,13,4,5,6,0,8,8,8,26,8,12,0,6,7,9,11,9,0,0,6,6,0,14,0,6,6,2184.txt
5,12,10,12,0,16,5,0,15,0,0,0,5,5,0,4,0,0,0,9,6,0,3,8,4,10,29,0,9,5,6,16,8,8,17,26,8,14,0,6,10,9,11,9,0,0,6,8,5,14,0,7,5,2186.txt
5,12,10,12,0,16,5,0,15,5,4,0,5,5,0,4,0,8,0,0,0,7,3,0,3,10,27,0,4,5,6,0,8,8,23,26,8,12,0,6,7,9,11,9,0,0,6,6,0,14,15,6,0,2188.txt
5,12,10,12,5,16,5,5,4,0,13,0,5,5,0,4,0,0,0,0,6,0,3,19,3,10,29,0,9,4,6,0,8,8,17,26,8,8,17,7,8,9,7,9,7,0,6,6,0,14,7,7,0,2189.txt
5,12,10,11,0,16,5,6,15,0,0,5,5,5,0,4,0,6,0,0,7,0,3,4,3,9,17,29,6,5,6,6,8,7,8,20,7,12,8,6,7,9,9,9,0,0,6,5,10,14,0,6,8,2191.txt
5,12,10,11,0,17,5,0,15,0,0,0,5,5,0,4,0,6,0,9,9,0,3,4,3,9,13,9,0,5,6,0,8,7,8,28,7,12,12,6,0,9,9,9,0,0,6,5,10,16,22,0,5,2194.txt
5,12,10,11,0,17,4,0,4,5,0,0,5,5,0,4,0,0,0,10,0,0,3,0,3,9,13,0,0,5,6,0,8,7,0,14,7,19,0,6,14,9,9,9,0,0,6,5,4,8,0,0,0,2196.txt
5,12,6,14,0,8,4,9,0,9,0,8,16,0,0,0,0,16,6,5,6,4,3,12,5,11,0,8,0,5,0,9,9,7,10,7,10,0,0,6,0,0,0,11,0,0,4,5,14,17,0,6,0,2200.txt
5,12,10,12,0,16,5,0,15,0,0,0,5,5,0,4,0,0,0,0,6,0,3,0,3,10,26,0,0,5,6,0,8,7,0,26,8,16,0,6,0,9,10,9,0,0,6,6,0,14,0,6,0,2201.txt
5,12,10,11,0,13,4,21,10,5,0,8,17,0,0,0,0,6,0,0,6,0,3,0,4,9,10,9,0,5,6,0,8,7,10,12,7,23,12,6,0,10,0,9,0,0,6,5,6,21,16,6,0,2204.txt
5,12,10,12,5,16,5,5,15,5,0,0,5,5,0,4,0,6,0,0,6,0,3,0,3,10,17,13,0,5,6,0,8,7,10,26,8,12,12,6,20,9,9,9,7,0,6,6,0,14,7,6,0,2206.txt
5,12,10,12,0,16,5,0,4,0,0,0,5,5,0,4,0,6,0,0,7,0,3,4,3,10,17,0,4,5,6,0,8,7,6,21,7,8,0,6,7,9,9,9,0,0,6,6,0,14,0,0,8,2209.txt
5,12,10,12,0,16,5,6,4,0,0,5,5,5,0,4,0,0,0,9,9,0,4,4,4,10,27,0,12,5,6,6,8,19,6,26,8,8,8,6,22,9,10,9,0,0,6,7,5,14,0,15,5,2211.txt
5,12,10,12,0,16,5,0,15,0,0,0,5,5,0,4,0,0,0,0,0,0,3,0,3,10,26,0,8,5,6,0,8,8,16,26,8,12,12,6,9,9,10,9,0,0,6,6,0,14,0,13,0,2213.txt
