0,1,2,3,4,5,6,7,8,9,10,11,12,13,14,15,16,17,18,19,20,21,22,23,24,25,26,27,28,29,30,31,32,33,34,35,36,37,38,39,40,41,42,43,44,45,46,47,48,49,50,51,52,53,54,55,56,filename
0,0,0,0,0,0,0,0,22,21,13,4,3,3,18,0,0,0,0,0,0,0,0,0,0,10,12,1,9,9,21,0,0,0,0,0,1,1,1,1,1,24,1,1,1,19,1,1,1,1,9,0,0,5,0,7,7,2.txt
18,18,11,15,2,0,0,0,7,3,2,2,2,2,2,9,9,4,3,10,8,22,1,5,1,11,3,1,3,3,3,11,15,3,3,30,1,1,1,1,1,1,1,1,1,5,1,1,5,5,5,8,3,8,0,5,5,5.txt
0,0,0,0,0,0,0,0,22,21,13,4,3,3,18,0,0,0,0,0,0,0,0,0,0,10,12,0,9,9,0,0,0,0,0,0,2,5,4,2,2,1,2,26,7,19,13,11,6,4,9,0,0,5,0,4,4,9.txt
0,0,0,0,0,0,0,0,22,21,13,4,3,3,18,0,0,0,0,0,0,0,0,0,0,10,12,1,9,9,21,0,0,0,0,0,1,1,1,1,1,1,1,1,1,19,1,1,5,5,9,1,1,1,1,5,5,12.txt
0,0,0,0,0,0,0,0,22,21,13,4,3,3,18,0,0,0,0,0,0,0,0,0,0,10,12,1,9,9,21,0,0,0,0,0,1,1,1,1,1,1,1,1,1,19,1,1,5,5,11,0,0,5,0,5,5,14.txt
0,0,9,0,0,0,0,0,22,21,0,18,0,0,0,5,29,12,13,0,0,13,9,9,10,10,12,1,9,9,19,0,0,0,0,0,1,1,1,1,1,4,1,1,1,18,1,1,1,1,9,0,0,7,18,1,1,16.txt
0,0,0,0,0,0,0,0,22,21,13,4,3,3,18,0,0,0,0,0,0,0,0,0,0,10,12,1,9,9,21,0,0,0,0,0,1,1,1,1,1,5,1,1,1,19,1,1,5,5,9,17,13,19,27,5,5,17.txt
0,0,0,0,0,0,0,0,22,21,13,4,3,3,18,0,0,0,0,0,0,0,0,0,0,10,12,1,9,9,0,0,0,0,0,0,1,1,1,1,1,1,1,1,1,19,1,1,5,5,9,8,11,8,0,5,5,21.txt
0,0,0,0,0,0,0,0,22,21,13,4,3,3,18,0,0,0,0,0,0,0,0,0,0,10,12,1,9,9,0,0,0,0,0,0,1,1,1,1,1,1,1,1,1,19,1,1,5,5,9,1,1,1,1,5,5,23.txt
0,0,0,0,0,4,3,21,22,21,13,4,3,3,18,0,0,0,0,0,0,0,0,0,0,10,12,1,9,9,21,0,0,0,0,0,1,1,1,1,1,1,1,1,1,19,1,1,5,5,9,8,11,8,0,5,5,24.txt
0,0,0,0,0,0,0,0,22,21,13,4,3,3,18,0,0,0,0,0,0,0,0,0,0,10,12,0,9,9,21,0,0,0,0,0,2,5,4,2,2,4,2,26,2,19,4,4,6,4,11,0,0,5,0,4,4,26.txt
0,0,0,0,0,0,0,0,22,21,13,4,3,3,18,0,0,0,0,0,0,0,0,0,0,10,12,1,9,9,0,0,0,0,0,0,1,1,1,1,1,1,1,1,1,19,1,1,5,5,9,8,11,8,0,5,5,28.txt
0,0,0,0,0,0,0,0,22,21,20,4,3,3,18,0,0,0,0,0,0,0,0,0,0,10,12,0,9,9,21,0,0,0,0,0,2,5,4,2,2,1,2,26,2,0,4,4,6,4,9,0,0,5,18,4,4,30.txt
20,19,15,3,2,29,30,27,2,26,22,15,16,12,16,9,9,1,15,10,20,14,22,26,17,12,19,24,10,11,7,11,11,15,8,24,15,18,15,18,15,23,17,18,10,8,18,18,19,18,16,30,27,27,5,26,27,32.txt
0,0,0,0,0,23,2,16,22,21,13,4,3,3,18,0,0,0,0,0,0,0,0,0,0,10,12,29,9,9,19,0,0,0,0,0,22,4,4,24,24,4,12,21,20,19,4,4,24,9,9,0,0,26,25,6,8,34.txt
0,0,0,0,0,0,0,0,22,21,13,4,3,3,18,0,0,0,0,0,0,0,0,0,0,10,12,11,9,9,21,0,0,0,0,0,6,4,5,6,0,13,0,6,6,19,5,17,25,11,9,8,30,8,0,6,24,36.txt
0,0,0,0,0,0,0,0,22,21,13,4,3,3,18,0,0,0,0,0,0,0,0,0,0,10,12,1,9,9,0,0,0,0,0,0,1,1,1,1,1,1,1,1,1,19,1,1,5,5,9,1,1,1,1,5,5,40.txt
0,0,0,0,0,0,0,0,22,21,20,4,3,3,18,0,0,0,0,0,0,0,0,0,0,10,12,19,9,9,21,0,0,0,0,0,6,4,5,6,0,4,0,6,6,0,5,17,4,6,9,0,0,26,0,6,9,41.txt
0,0,0,0,0,0,0,0,22,21,13,4,3,3,18,0,0,0,0,0,0,0,0,0,0,10,12,1,9,9,21,0,0,0,0,0,1,1,1,1,1,1,1,1,1,19,1,1,5,5,11,1,1,1,1,5,5,49.txt
0,0,0,0,0,0,0,0,22,21,13,4,3,3,18,0,0,0,0,0,0,0,0,0,0,10,12,2,9,9,0,0,0,0,0,0,6,5,4,6,0,1,0,6,6,19,4,4,6,4,9,8,7,8,0,4,4,53.txt
0,0,0,0,0,0,0,0,22,21,13,4,3,3,18,0,0,0,0,0,0,0,0,0,0,10,12,1,9,9,21,0,0,0,0,0,1,1,1,1,1,4,1,1,1,19,1,1,5,5,9,0,0,7,0,5,5,55.txt
0,0,0,0,0,0,0,0,22,21,13,4,3,3,18,0,0,0,0,0,0,0,0,0,0,10,12,1,9,9,0,0,0,0,0,0,1,1,1,1,1,1,1,1,1,19,1,1,5,5,9,0,0,5,18,5,5,57.txt
0,0,0,0,0,0,0,0,22,21,13,4,3,3,18,0,0,0,0,0,0,0,0,0,0,10,12,1,9,9,0,0,0,0,0,0,1,1,1,1,1,1,1,1,1,19,1,1,5,5,9,1,1,1,1,5,5,60.txt
0,0,0,1,0,0,0,0,22,21,0,18,0,0,0,0,0,0,0,0,6,15,6,13,6,1,7,0,11,10,7,1,1,1,8,1,2,5,4,2,2,4,2,26,2,10,4,4,6,6,9,0,0,5,0,8,9,61.txt
0,0,0,0,0,0,0,0,22,21,13,4,3,3,18,0,0,0,0,0,0,0,0,0,0,10,12,1,9,9,0,0,0,0,0,0,1,1,1,1,1,1,1,1,1,17,1,1,5,5,9,1,1,1,1,5,5,63.txt
0,11,0,3,0,0,0,0,1,5,3,3,4,4,4,30,1,3,7,20,1,1,1,3,1,1,8,12,11,10,14,9,10,1,12,1,2,5,4,2,3,5,3,3,2,9,4,4,6,4,17,8,15,8,18,4,4,65.txt
18,11,1,15,28,0,0,0,1,5,3,3,4,4,4,13,1,3,9,19,1,1,1,27,1,1,3,1,5,6,7,17,8,1,8,1,1,1,1,1,1,1,1,1,1,9,1,1,5,5,5,8,3,8,0,5,5,68.txt
0,0,0,0,0,0,0,0,22,21,13,4,3,3,18,0,0,0,0,0,0,0,0,0,0,10,12,26,9,9,0,0,0,0,0,0,3,5,22,3,3,5,18,3,7,19,7,7,6,4,9,8,11,8,0,4,4,71.txt
0,0,9,0,0,0,0,0,22,21,13,4,3,3,18,5,0,6,6,0,0,13,9,9,10,10,12,1,9,9,21,0,0,0,0,0,1,1,1,1,1,1,1,1,1,19,1,1,5,5,9,8,23,8,0,5,5,72.txt
0,0,0,0,0,0,0,0,22,21,13,4,3,3,18,0,0,0,0,0,0,0,0,0,0,10,12,1,9,9,0,0,0,0,0,2,1,1,1,1,1,1,1,1,1,19,1,1,5,5,11,1,1,1,1,5,5,76.txt
0,0,0,0,0,0,0,0,22,21,0,18,0,0,0,0,29,0,0,0,0,0,0,0,0,10,12,0,9,9,0,0,0,0,0,0,2,28,24,2,2,6,2,26,2,18,18,12,15,18,9,19,0,5,12,23,25,78.txt
0,0,0,0,0,0,0,0,22,21,13,4,3,3,18,0,0,0,0,0,0,0,0,0,0,10,12,9,9,9,0,0,0,0,0,0,6,5,5,6,0,1,0,6,6,19,5,17,6,4,9,8,30,8,0,4,4,81.txt
0,0,0,0,0,0,0,0,22,21,13,4,3,3,18,0,0,0,0,0,0,0,0,0,0,10,12,0,9,9,0,0,0,0,0,0,2,5,4,2,2,4,2,26,2,19,4,4,6,4,9,0,0,5,3,4,4,84.txt
0,0,0,0,0,0,0,0,22,21,13,4,3,3,18,0,0,0,0,0,0,0,0,0,0,10,12,1,9,9,0,0,0,0,0,0,1,1,1,1,1,1,1,1,1,19,1,1,5,5,9,1,1,1,1,5,5,86.txt
0,0,0,0,0,0,0,0,22,21,13,4,3,3,18,0,0,0,0,0,0,0,0,0,0,10,12,1,9,9,21,0,0,0,0,0,1,1,1,1,1,1,1,1,1,19,1,1,5,5,9,0,0,6,0,5,5,89.txt
0,0,0,0,0,0,0,0,22,21,13,4,3,3,18,0,0,0,0,0,0,0,0,0,0,10,12,1,9,9,0,0,0,0,0,0,1,1,1,1,1,1,1,1,1,19,1,1,8,7,9,0,0,7,0,1,1,90.txt
0,0,0,0,0,0,0,0,22,21,13,4,3,3,18,0,0,0,0,0,0,0,0,0,0,10,12,1,9,9,0,0,0,0,0,0,1,1,1,1,1,1,1,1,1,19,1,1,5,5,9,1,1,1,1,5,5,92.txt
0,0,0,0,0,0,0,0,9,21,0,18,0,0,0,0,0,0,0,0,0,0,0,0,0,10,12,0,9,9,0,0,0,0,0,2,2,12,13,2,2,6,2,26,2,19,16,12,15,16,9,0,0,5,2,23,25,95.txt
0,0,0,0,0,0,0,0,22,21,13,4,3,3,18,0,0,0,0,0,0,0,0,0,0,10,12,11,9,9,0,0,0,0,0,0,16,4,5,19,0,1,0,6,14,19,5,17,4,22,9,10,11,11,7,6,24,97.txt
0,0,0,0,0,0,0,0,22,21,13,4,3,3,18,0,0,0,0,0,0,0,0,0,0,10,12,1,9,9,0,0,0,0,0,0,1,1,1,1,1,0,1,1,1,19,1,1,5,5,9,0,0,0,0,5,5,98.txt
0,0,0,0,0,0,0,0,22,21,13,4,3,3,18,0,0,0,0,0,0,0,0,0,0,10,12,1,9,9,0,0,0,0,0,0,1,1,1,1,1,1,1,1,1,19,1,1,5,5,9,1,1,1,1,5,5,100.txt
0,0,0,0,0,0,0,0,22,21,13,4,3,3,18,0,0,0,0,0,0,0,0,0,0,10,12,7,9,9,0,0,0,0,0,0,2,2,2,2,8,1,8,27,2,19,22,20,23,3,9,8,11,8,0,25,28,102.txt
0,0,0,0,0,0,0,0,22,21,13,4,3,3,18,0,0,0,0,0,0,0,0,0,0,10,12,1,9,9,0,0,0,0,0,0,1,1,1,1,1,1,1,1,1,19,1,1,5,5,9,0,0,5,0,5,5,105.txt
0,0,0,0,0,0,0,0,22,21,13,4,3,3,18,0,0,0,0,0,0,0,0,0,0,10,12,1,9,9,0,0,0,0,0,0,1,1,1,1,1,1,1,1,1,19,1,1,5,5,9,1,1,1,1,5,5,108.txt
0,0,0,0,0,0,0,0,22,21,13,4,3,3,18,0,0,0,0,0,0,0,0,0,0,10,12,1,9,9,0,0,0,0,0,0,1,1,1,1,1,1,1,1,1,19,1,1,5,5,9,1,1,1,1,5,5,110.txt
0,0,0,0,0,0,0,0,22,21,13,4,3,3,18,0,0,0,0,0,0,0,0,0,0,10,12,1,9,9,0,0,0,0,0,0,1,1,1,1,1,1,1,1,1,19,1,1,5,5,9,1,1,1,1,5,5,112.txt
0,0,0,0,0,0,0,0,22,21,13,4,3,3,18,0,0,0,0,0,0,0,0,0,0,10,12,7,9,9,0,0,0,0,0,0,2,5,4,2,2,1,2,26,7,19,4,4,6,4,9,8,15,8,18,4,4,114.txt
0,0,0,0,0,0,0,0,22,21,13,4,3,3,18,0,0,0,0,0,0,0,0,0,0,10,12,18,9,9,0,0,0,0,0,0,2,5,4,2,2,4,2,26,2,20,4,4,6,6,9,0,0,5,0,21,9,116.txt
0,0,0,0,0,0,0,0,22,21,13,4,3,3,18,0,0,0,0,0,0,0,0,0,0,10,12,1,9,9,21,0,0,0,0,0,1,1,1,1,1,1,1,1,1,19,1,1,5,5,9,1,1,1,1,5,5,118.txt
18,11,1,15,28,16,12,9,1,26,1,15,16,28,16,13,13,3,14,19,1,1,1,27,1,1,3,1,11,10,15,17,1,23,11,10,1,1,1,1,1,1,1,1,1,9,1,1,5,5,1,13,4,5,2,5,5,121.txt
0,0,0,0,0,0,0,0,22,21,13,4,3,3,18,0,0,0,0,0,0,0,0,0,0,10,12,10,9,9,0,0,0,0,0,0,2,5,11,2,16,5,3,24,17,19,13,11,6,4,9,8,11,8,0,4,4,123.txt
0,0,0,0,0,0,0,0,22,21,13,4,3,3,18,0,0,0,0,0,0,0,0,0,0,10,12,7,9,9,0,0,0,0,0,0,6,4,5,6,0,1,0,6,6,19,5,17,10,4,9,8,11,8,0,4,4,124.txt
0,0,0,0,0,0,0,0,22,21,13,4,3,3,18,0,0,0,0,0,0,0,0,0,0,10,12,1,9,9,0,0,0,0,0,0,1,1,1,1,1,1,1,1,1,19,1,1,5,5,9,1,1,1,1,5,5,126.txt
0,0,0,0,0,0,0,0,22,21,13,4,3,3,18,0,0,0,0,0,0,0,0,0,0,10,12,1,9,9,0,0,0,0,0,0,1,1,1,1,1,1,1,1,1,19,1,1,1,1,9,10,11,11,21,1,1,128.txt
0,0,0,0,0,0,0,0,22,21,13,4,3,3,18,0,0,0,0,0,0,0,0,0,0,10,12,1,9,9,0,0,0,0,0,0,1,1,1,1,1,1,1,1,1,19,1,1,5,5,9,1,1,1,1,5,5,130.txt
0,0,0,0,0,0,0,0,22,21,13,4,3,3,18,0,0,0,0,0,0,0,0,0,0,10,12,1,9,9,0,0,0,0,0,0,1,1,1,1,1,1,1,1,1,19,1,1,5,5,9,1,1,1,1,5,5,132.txt
0,0,0,0,0,0,0,0,22,21,13,4,3,3,18,0,0,0,0,0,0,0,0,0,0,10,12,1,9,9,0,0,0,0,0,0,1,1,1,1,1,1,1,1,1,19,1,1,5,5,9,1,1,1,1,5,5,135.txt
0,0,0,0,0,0,0,0,22,21,0,18,0,0,0,0,0,0,0,0,0,0,0,0,0,10,12,1,9,9,21,0,0,0,0,0,1,1,1,1,1,12,1,1,1,19,1,1,5,5,11,20,0,7,18,5,5,137.txt
0,0,0,0,0,0,0,0,22,21,13,4,3,3,18,0,0,0,0,0,0,0,0,0,0,10,12,1,9,9,0,0,0,0,0,0,1,1,1,1,1,1,1,1,1,19,1,1,5,5,9,1,1,1,1,5,5,141.txt
0,0,0,0,0,0,0,0,22,21,13,4,3,3,18,0,0,0,0,0,0,0,0,0,0,10,12,1,9,9,0,0,0,0,0,0,1,1,1,1,1,1,1,1,1,19,1,1,5,5,9,0,0,5,0,5,5,144.txt
0,0,0,0,0,0,0,0,1,21,13,4,3,3,18,0,0,0,0,0,0,0,0,0,0,10,12,1,9,9,0,0,0,0,0,0,1,1,1,1,1,1,1,1,1,19,1,1,5,5,9,8,11,8,0,5,5,145.txt
0,0,0,0,0,0,0,0,22,21,13,4,3,3,18,0,0,0,0,0,0,0,0,0,0,10,12,1,9,9,0,0,0,0,0,0,1,1,1,1,1,1,1,1,1,19,1,1,5,5,9,1,1,1,1,5,5,147.txt
0,0,0,0,0,0,0,0,22,21,13,4,3,3,18,0,0,0,0,0,0,0,0,0,0,10,12,1,9,9,0,0,0,0,0,0,1,1,1,1,1,1,1,1,1,0,1,1,5,5,9,0,0,5,0,5,5,149.txt
0,0,0,0,0,0,0,0,22,21,13,4,3,3,18,0,0,0,0,0,0,0,0,0,0,10,12,1,9,9,21,0,0,0,0,0,1,1,1,1,1,1,1,1,1,19,1,1,5,5,9,1,1,1,1,5,5,151.txt
0,0,0,0,0,0,0,0,22,21,13,4,3,3,18,0,0,0,0,0,0,0,0,0,0,10,12,1,9,9,0,0,0,0,0,0,1,1,1,1,1,1,1,1,1,19,1,1,5,5,9,1,1,1,1,5,5,154.txt
0,0,0,0,0,0,0,0,22,21,13,4,3,3,18,0,0,0,0,0,0,0,0,0,0,10,12,1,9,9,0,0,0,0,0,0,1,1,1,1,1,1,1,1,1,19,1,1,5,5,11,19,0,5,3,5,5,156.txt
0,0,0,0,0,0,0,0,22,21,13,4,3,3,18,0,0,0,0,0,0,0,0,0,0,10,12,0,9,9,0,0,0,0,0,0,2,5,4,2,2,4,2,26,2,19,4,4,6,4,9,0,0,5,0,4,4,158.txt
0,0,0,0,0,0,0,0,22,21,13,4,3,3,18,0,0,0,0,0,0,0,0,0,0,10,12,1,9,9,0,0,0,0,0,0,1,1,1,1,1,26,1,1,1,19,1,1,1,1,9,8,19,8,0,10,10,160.txt
0,0,0,0,0,0,0,0,22,21,13,4,3,3,18,0,0,0,0,0,0,0,0,0,0,10,12,1,9,9,21,0,0,0,0,0,1,1,1,1,1,1,1,1,1,0,1,1,8,7,9,0,0,5,0,1,1,161.txt
0,0,0,0,0,0,0,0,22,21,0,18,0,0,0,0,0,0,0,0,0,0,0,0,0,10,12,0,9,9,0,0,0,0,0,0,2,5,4,2,2,4,2,26,2,19,4,4,6,6,9,0,0,5,0,6,6,163.txt
0,0,0,0,0,0,0,0,22,21,13,4,3,3,18,0,0,0,0,0,0,0,0,0,0,10,12,1,9,9,0,0,0,0,0,0,1,1,1,1,1,1,1,1,1,19,1,1,5,5,11,1,1,1,1,5,5,165.txt
0,0,0,2,0,0,0,0,22,21,13,4,3,3,18,0,0,0,0,0,1,1,1,27,1,1,7,0,11,10,7,17,1,1,8,1,2,12,14,2,2,1,2,26,2,9,16,12,15,16,9,0,0,5,12,23,25,167.txt
0,0,0,0,0,0,0,0,22,21,13,4,3,3,18,0,0,0,0,0,0,0,0,0,0,10,12,1,9,9,0,0,0,0,0,0,1,1,1,1,1,1,1,1,1,19,1,1,5,5,9,1,1,1,1,5,5,169.txt
0,0,0,0,0,0,0,0,22,21,13,4,3,3,18,0,0,0,0,0,0,0,0,0,0,10,12,1,9,9,21,0,0,0,0,0,1,1,1,1,1,1,1,1,1,19,1,1,5,5,9,1,1,1,1,5,5,171.txt
0,0,0,0,0,0,0,0,22,21,13,4,3,3,18,0,0,0,0,0,0,0,0,0,0,10,12,0,9,9,21,0,0,0,0,0,2,5,4,2,2,1,2,26,2,19,4,4,6,4,9,0,0,5,0,4,4,173.txt
0,0,0,0,0,0,0,0,22,21,13,4,3,3,18,0,0,0,0,0,0,0,0,0,0,10,12,1,9,9,21,0,0,0,0,0,1,1,1,1,1,1,1,1,1,19,1,1,5,5,9,1,1,1,1,5,5,175.txt
0,0,0,0,0,0,0,0,22,21,13,4,3,3,18,0,0,0,0,0,0,0,0,0,0,10,12,1,9,9,21,0,0,0,0,0,1,1,1,1,1,1,1,1,1,19,1,1,5,5,9,1,1,1,1,5,5,177.txt
0,0,0,0,0,0,0,0,22,21,13,4,3,3,18,0,0,0,0,0,0,0,0,0,0,10,12,1,9,9,0,0,0,0,0,0,1,1,1,1,1,1,1,1,1,19,1,1,5,5,9,1,1,1,1,5,5,179.txt
0,0,0,0,0,0,0,0,22,21,13,4,3,3,18,0,0,0,0,0,0,0,0,0,0,10,12,1,9,9,21,0,0,0,0,0,1,1,1,1,1,1,1,1,1,19,1,1,5,5,11,1,1,1,1,5,5,182.txt
0,0,0,0,0,0,0,0,22,21,13,4,3,3,18,0,0,0,0,0,0,0,0,0,0,10,12,1,9,9,0,0,0,0,0,0,1,1,1,1,1,1,1,1,1,19,1,1,5,5,9,1,1,1,1,5,5,184.txt
0,0,0,0,0,0,0,0,22,21,13,4,3,3,18,0,0,0,0,0,0,0,0,0,0,10,12,1,9,9,0,0,0,0,0,0,1,1,1,1,1,1,1,1,1,19,1,1,5,5,9,19,0,5,3,5,5,188.txt
0,0,0,0,0,0,0,0,22,21,13,4,3,3,18,0,0,0,0,0,0,0,0,0,0,10,12,18,9,9,22,0,0,0,0,0,6,2,2,6,0,27,0,6,6,19,22,20,23,3,9,19,0,5,0,25,28,189.txt
0,0,0,0,0,0,0,0,22,21,13,4,3,3,18,0,0,0,0,0,0,0,0,0,0,10,12,1,9,9,0,0,0,0,0,0,1,1,1,1,1,1,1,1,1,19,1,1,5,5,9,0,0,5,12,5,5,191.txt
20,19,14,21,20,0,0,0,19,6,24,17,21,18,24,21,21,18,15,29,6,15,6,28,6,26,30,6,12,29,29,8,30,28,7,25,17,9,4,20,30,15,30,27,7,25,13,11,11,8,24,8,30,8,0,8,9,194.txt
0,0,0,0,0,0,0,0,22,21,13,4,3,3,18,0,0,0,0,0,0,0,0,0,0,10,12,1,9,9,0,0,0,0,0,0,1,1,1,1,1,1,1,1,1,19,1,1,5,5,9,1,1,1,1,5,5,197.txt
0,0,0,0,0,0,0,0,22,21,13,4,3,3,18,0,0,0,0,0,0,0,0,0,0,10,12,1,9,9,0,0,0,0,0,0,1,1,1,1,1,1,1,1,1,19,1,1,5,5,9,1,1,1,1,5,5,199.txt
0,0,0,0,0,23,2,16,22,21,13,4,3,3,18,0,29,0,0,0,0,0,0,0,0,10,12,26,9,9,21,0,0,0,0,0,6,14,4,6,10,4,9,6,6,19,4,4,4,6,9,10,11,11,30,6,9,203.txt
0,0,0,0,0,0,0,0,22,21,13,4,3,3,18,0,0,0,0,0,0,0,0,0,0,10,12,1,9,9,0,0,0,0,0,0,1,1,1,1,1,1,1,1,1,19,1,1,5,5,9,1,1,1,1,5,5,204.txt
0,0,0,0,0,0,0,0,22,21,0,18,0,0,0,0,0,0,0,0,0,0,0,0,0,10,12,0,9,9,19,0,0,0,0,0,2,2,2,2,2,27,2,26,2,19,22,20,23,3,9,0,0,21,12,25,28,209.txt
0,0,0,0,0,0,0,0,22,21,13,4,3,3,18,0,0,0,0,0,0,0,0,0,0,10,12,1,9,9,21,0,0,0,0,0,1,1,1,1,1,1,1,1,1,0,1,1,12,12,9,0,0,5,0,7,7,210.txt
0,0,0,0,0,0,0,0,22,21,13,4,3,3,18,0,0,0,0,0,0,0,0,0,0,10,12,1,9,9,0,0,0,0,0,0,1,1,1,1,1,1,1,1,1,19,1,1,5,5,11,1,1,1,1,5,5,212.txt
0,0,0,0,0,0,0,0,22,21,13,4,3,3,18,0,0,0,0,0,0,0,0,0,0,10,12,9,9,9,21,0,0,0,0,0,13,5,4,16,13,4,15,17,9,19,4,4,6,4,9,8,11,8,0,4,4,214.txt
18,11,1,21,28,8,4,6,13,3,2,2,2,2,2,13,6,20,3,19,1,1,18,12,8,5,13,16,5,6,11,16,20,7,24,30,29,19,29,11,9,27,10,10,13,16,26,15,22,21,7,21,30,22,7,22,11,217.txt
0,0,0,0,0,0,0,0,22,21,0,18,0,0,0,0,0,0,0,0,0,0,0,0,0,10,12,1,9,9,21,0,0,0,0,0,1,1,1,1,1,4,1,1,1,19,1,1,5,5,9,13,14,7,18,5,5,219.txt
0,0,0,0,0,0,0,0,22,21,13,4,3,3,18,0,0,0,0,0,0,0,0,0,0,10,12,1,9,9,0,0,0,0,0,0,1,1,1,1,1,4,1,1,1,19,1,1,5,5,11,1,1,1,1,5,5,220.txt
0,0,0,0,0,0,0,0,22,21,13,4,3,3,18,0,0,0,0,0,0,0,0,0,0,10,12,1,9,9,0,0,0,0,0,0,1,1,1,1,1,1,1,1,1,19,1,1,5,5,9,1,1,1,1,5,5,222.txt
0,0,0,0,0,0,0,0,22,21,13,4,3,3,18,0,0,0,0,0,0,0,0,0,0,10,12,1,9,9,0,0,0,0,0,0,1,1,1,1,1,4,1,1,1,19,1,1,5,5,9,1,1,1,1,5,5,225.txt
0,0,0,0,0,0,0,0,22,21,13,4,3,3,18,0,0,0,0,0,0,0,0,0,0,10,12,1,9,9,0,0,0,0,0,0,1,1,1,1,1,1,1,1,1,19,1,1,5,5,9,0,0,5,0,5,5,227.txt
0,0,0,0,0,0,0,0,22,21,13,4,3,3,18,0,0,0,0,0,0,0,0,0,0,10,12,1,9,9,0,0,0,0,0,0,1,1,1,1,1,1,1,1,1,19,1,1,5,5,9,1,1,1,1,5,5,229.txt
0,0,0,0,0,0,0,0,22,21,13,4,3,3,18,0,0,0,0,0,0,0,0,0,0,10,12,1,9,9,0,0,0,0,0,0,1,1,1,1,1,1,1,1,1,0,1,1,1,1,9,1,1,1,1,1,1,231.txt
0,0,0,15,0,0,0,0,1,21,13,4,3,3,18,0,0,0,0,0,1,1,1,27,1,5,7,0,11,10,7,17,1,7,8,10,2,5,4,2,2,1,2,26,2,9,4,4,6,4,9,0,0,5,0,4,4,236.txt
0,0,0,0,0,0,0,0,22,21,13,4,3,3,18,0,0,0,0,0,0,0,0,0,0,10,12,0,9,9,21,0,0,0,0,0,6,5,11,6,0,13,0,6,6,19,13,4,6,22,9,19,0,5,0,6,24,241.txt
0,0,0,0,0,0,0,0,22,21,13,4,3,3,18,0,0,0,0,0,0,0,0,0,0,10,12,1,9,9,0,0,0,0,0,0,1,1,1,1,1,4,1,1,1,19,1,1,5,5,9,1,1,1,1,5,5,242.txt
0,0,0,0,0,0,0,0,22,21,13,4,3,3,18,0,0,0,0,0,0,0,0,0,0,10,12,1,9,9,21,0,0,0,0,0,1,1,1,1,1,1,1,1,1,19,1,1,5,5,9,10,11,11,7,5,5,245.txt
0,0,0,0,0,0,0,0,22,21,20,4,3,3,18,0,0,0,0,0,0,0,0,0,0,10,12,1,9,9,0,0,0,0,0,0,1,1,1,1,1,1,1,1,1,0,1,1,5,5,9,0,0,5,0,5,5,247.txt
0,0,0,0,0,0,0,0,22,21,13,4,3,3,18,0,0,0,0,0,0,0,0,0,0,10,12,1,9,9,0,0,0,0,0,0,1,1,1,1,1,27,1,1,1,19,1,1,1,1,9,20,0,7,2,1,1,249.txt
0,0,0,0,0,0,0,0,22,21,13,4,3,3,18,0,0,0,0,0,0,0,0,0,0,10,12,1,9,9,0,0,0,0,0,2,1,1,1,1,1,1,1,1,1,19,1,1,5,5,9,1,1,1,1,5,5,250.txt
0,0,0,0,0,0,0,0,22,21,13,4,3,3,18,0,0,0,0,0,0,0,0,0,0,10,12,1,9,9,21,0,0,0,0,0,1,1,1,1,1,1,1,1,1,19,1,1,5,5,9,1,1,1,1,5,5,252.txt
18,11,1,15,28,0,0,0,1,5,3,3,4,4,4,13,6,3,3,19,1,1,1,27,1,5,3,1,5,6,7,17,1,7,8,10,1,1,1,1,1,1,1,1,1,9,1,1,5,5,1,0,0,5,0,5,5,256.txt
0,0,0,0,0,0,0,0,22,21,13,4,3,3,18,0,0,0,0,0,0,0,0,0,0,10,12,1,9,9,0,0,0,0,0,0,1,1,1,1,1,1,1,1,1,19,1,1,5,5,9,0,0,7,0,5,5,258.txt
0,0,0,0,0,0,0,0,22,21,13,4,3,3,18,0,0,0,0,0,0,0,0,0,0,10,12,1,9,9,0,0,0,0,0,0,1,1,1,1,1,1,1,1,1,19,1,1,5,5,9,1,1,1,1,5,5,260.txt
0,0,0,0,0,0,0,0,22,21,13,4,3,3,18,0,0,0,0,0,0,0,0,0,0,10,12,1,9,9,21,0,0,0,0,0,1,1,1,1,1,1,1,1,1,0,1,1,12,12,9,0,0,5,0,7,7,261.txt
0,0,0,0,0,0,0,0,22,21,13,4,3,3,18,0,0,0,0,0,0,0,0,0,0,10,12,1,9,9,0,0,0,0,0,0,1,1,1,1,1,1,1,1,1,19,1,1,5,5,9,1,1,1,1,5,5,264.txt
0,0,0,0,0,0,0,0,22,21,13,4,3,3,18,0,0,0,0,0,0,0,0,0,0,10,12,1,9,9,0,0,0,0,0,0,1,1,1,1,1,1,1,1,1,19,1,1,1,1,11,1,1,1,1,1,1,269.txt
0,0,0,0,0,0,0,0,22,21,13,4,3,3,18,0,0,0,0,0,0,0,0,0,0,10,12,1,9,9,0,0,0,0,0,0,1,1,1,1,1,1,1,1,1,19,1,1,5,5,9,1,1,1,1,5,5,272.txt
0,0,0,0,0,0,0,0,22,21,13,4,3,3,18,0,0,0,0,0,0,0,0,0,0,10,12,1,9,9,0,0,0,0,0,0,1,1,1,1,1,1,1,1,1,19,1,1,5,5,9,1,1,1,1,5,5,274.txt
0,0,0,0,0,23,2,16,22,21,0,18,0,0,0,0,29,0,0,0,0,0,0,0,0,10,12,0,9,9,0,0,0,0,0,0,13,28,24,16,12,0,12,13,9,0,18,0,21,18,9,0,0,0,0,0,0,276.txt
0,0,0,0,0,0,0,0,22,21,20,4,3,3,18,0,0,0,0,0,0,0,0,0,0,10,12,1,9,9,0,0,0,0,0,0,1,1,1,1,1,1,1,1,1,0,1,1,5,5,9,1,1,1,1,5,5,280.txt
0,0,0,0,0,0,0,0,22,21,13,4,3,3,18,0,0,0,0,0,0,0,0,0,0,10,12,1,9,9,0,0,0,0,0,0,1,1,1,1,1,1,1,1,1,19,1,1,1,1,11,1,1,1,1,1,1,282.txt
0,0,0,0,0,0,0,0,22,21,13,4,3,3,18,0,0,0,0,0,0,0,0,0,0,10,12,9,9,9,21,0,0,0,0,0,6,5,11,6,0,5,0,6,6,19,4,4,6,4,9,10,11,11,5,4,4,283.txt
0,0,0,0,0,0,0,0,22,21,13,4,3,3,18,0,0,0,0,0,0,0,0,0,0,10,12,1,9,9,0,0,0,0,0,0,1,1,1,1,1,1,1,1,1,19,1,1,5,5,9,1,1,1,1,5,5,284.txt
0,0,0,0,0,0,0,0,22,21,13,4,3,3,18,0,0,0,0,0,0,0,0,0,0,10,12,0,9,9,0,0,0,0,0,0,2,5,4,2,2,1,2,26,2,19,4,4,6,4,9,0,0,5,0,4,4,286.txt
0,0,0,0,0,0,0,0,22,21,13,4,3,3,18,0,0,0,0,0,0,0,0,0,0,10,12,0,9,9,19,0,0,0,0,0,6,2,2,6,0,27,0,6,6,19,22,20,23,3,9,0,0,21,0,25,28,288.txt
0,0,0,0,0,0,0,0,22,21,13,4,3,3,18,0,0,0,0,0,0,0,0,0,0,10,12,0,9,9,21,0,0,0,0,0,2,5,4,2,2,4,2,26,2,19,4,4,6,4,9,19,0,5,0,4,4,290.txt
0,0,0,0,0,0,0,0,22,21,13,4,3,3,18,0,0,0,0,0,0,0,0,0,0,10,12,1,9,9,18,0,0,0,0,0,1,1,1,1,1,1,1,1,1,19,1,1,1,1,9,1,1,1,1,1,1,293.txt
0,0,0,0,0,0,0,0,22,21,0,18,0,0,0,0,0,0,0,0,0,0,0,0,0,10,12,0,9,9,21,0,0,0,0,0,2,5,4,2,2,4,2,26,2,0,4,4,6,9,9,0,0,0,2,6,6,295.txt
29,19,25,15,20,16,19,25,19,6,29,20,27,21,29,22,26,18,19,26,14,15,14,28,25,13,30,0,27,29,30,8,29,26,30,12,13,18,17,16,21,9,22,14,10,25,23,27,27,23,12,19,0,6,12,18,27,297.txt
0,0,0,0,0,0,0,0,22,21,13,4,3,3,18,0,0,0,0,0,0,0,0,0,0,10,12,0,9,9,0,0,0,0,0,0,2,5,4,2,2,4,2,26,2,19,4,4,6,4,9,0,0,5,0,4,4,300.txt
0,0,0,0,0,0,0,0,22,21,13,4,3,3,18,0,0,0,0,0,0,0,0,0,0,10,12,1,9,9,0,0,0,0,0,0,1,1,1,1,1,1,1,1,1,19,1,1,5,5,9,1,1,1,1,5,5,303.txt
0,0,0,0,0,0,0,0,22,21,13,4,3,3,18,0,0,0,0,0,0,0,0,0,0,10,12,0,9,9,0,0,0,0,0,0,2,5,4,2,2,4,2,26,2,19,4,4,6,4,9,0,0,5,0,4,4,305.txt
0,0,0,0,0,0,0,0,22,21,13,4,3,3,18,0,0,0,0,0,0,0,0,0,0,10,12,1,9,9,21,0,0,0,0,0,1,1,1,1,1,1,1,1,1,19,1,1,5,5,9,0,0,5,18,5,5,307.txt
0,0,0,0,0,0,0,0,22,21,13,4,3,3,18,0,0,0,0,0,0,0,0,0,0,10,12,12,9,9,0,0,0,0,0,0,2,5,4,2,2,1,2,26,2,19,4,4,6,4,9,8,15,8,18,4,4,311.txt
0,0,0,0,0,0,0,0,22,21,13,4,3,3,18,0,0,0,0,0,0,0,0,0,0,10,12,1,9,9,21,0,0,0,0,0,1,1,1,1,1,1,1,1,1,19,1,1,5,5,9,0,0,5,0,5,5,313.txt
0,0,0,0,0,0,0,0,22,21,13,4,3,3,18,0,0,0,0,0,0,0,0,0,0,10,12,1,9,9,21,0,0,0,0,0,1,1,1,1,1,1,1,1,1,19,1,1,5,5,9,1,1,1,1,5,5,318.txt
0,0,0,0,0,0,0,0,22,21,13,4,3,3,18,0,0,0,0,0,0,0,0,0,0,10,12,1,9,9,0,0,0,0,0,0,1,1,1,1,1,4,1,1,1,19,1,1,5,5,9,1,1,1,1,5,5,320.txt
9,19,15,3,15,23,29,13,9,1,22,30,28,12,20,27,11,8,15,28,6,5,6,26,6,21,20,11,22,21,1,1,19,15,1,24,13,22,0,16,15,21,17,21,20,15,23,18,16,28,27,9,11,10,15,24,23,322.txt
9,19,15,3,15,23,29,13,9,1,22,30,28,12,20,27,11,8,15,28,6,5,6,26,6,21,20,11,22,21,1,1,19,15,1,24,13,22,0,16,15,21,17,21,20,15,23,18,16,28,27,9,11,10,15,24,23,323.txt
0,0,0,0,0,0,0,0,22,21,13,4,3,3,18,0,0,0,0,0,0,0,0,0,0,10,12,1,9,9,21,0,0,0,0,0,1,1,1,1,1,1,1,1,1,19,1,1,5,5,9,1,1,1,1,5,5,324.txt
0,0,0,0,0,0,0,0,22,21,0,18,0,0,0,0,0,0,0,0,0,0,0,0,0,10,12,18,9,9,22,0,0,0,0,0,2,12,18,2,2,6,2,26,2,19,18,12,16,18,9,0,0,6,12,23,25,326.txt
0,0,0,0,0,0,0,0,22,21,13,4,3,3,18,0,0,0,0,0,0,0,0,0,0,10,12,0,9,9,21,0,0,0,0,0,2,28,24,2,2,6,2,26,2,19,16,12,15,16,9,0,0,5,0,23,25,328.txt
0,0,0,0,0,0,0,0,22,21,13,4,3,3,18,0,0,0,0,0,0,0,0,0,0,10,12,1,9,9,0,0,0,0,0,0,1,1,1,1,1,1,1,1,1,19,1,1,5,5,9,1,1,1,1,5,5,329.txt
0,0,0,0,0,0,0,0,22,21,13,4,3,3,18,0,0,0,0,0,0,0,0,0,0,10,12,1,9,9,0,0,0,0,0,0,1,1,1,1,1,1,1,1,1,0,1,1,5,5,9,1,1,1,1,5,5,333.txt
0,0,0,0,0,0,0,0,22,21,13,4,3,3,18,0,0,0,0,0,0,0,0,0,0,10,12,1,9,9,0,0,0,0,0,0,1,1,1,1,1,1,1,1,1,19,1,1,5,5,9,1,1,1,1,5,5,335.txt
0,0,0,0,0,0,0,0,22,21,13,4,3,3,18,0,0,0,0,0,0,0,0,0,0,10,12,1,9,9,21,0,0,0,0,0,1,1,1,1,1,1,1,1,1,19,1,1,5,5,9,1,1,1,1,5,5,337.txt
0,0,0,0,0,0,0,0,22,21,13,4,3,3,18,0,0,0,0,0,0,0,0,0,0,10,12,1,9,9,21,0,0,0,0,2,1,1,1,1,1,24,1,1,1,19,1,1,12,30,9,13,4,20,13,10,10,341.txt
0,0,0,0,0,0,0,0,22,21,13,4,3,3,18,0,0,0,0,0,0,0,0,0,0,10,12,0,9,9,21,0,0,0,0,2,2,12,14,2,2,6,2,26,2,19,0,12,29,0,9,0,0,5,12,23,25,342.txt
0,0,0,0,0,0,0,0,22,21,13,4,3,3,18,0,0,0,0,0,0,0,0,0,0,10,12,1,9,9,0,0,0,0,0,0,1,1,1,1,1,1,1,1,1,19,1,1,5,5,9,8,11,8,0,5,5,344.txt
0,0,0,0,0,0,0,0,22,21,13,4,3,3,18,0,0,0,0,0,0,0,0,0,0,10,12,1,9,9,0,0,0,0,0,0,1,1,1,1,1,1,1,1,1,19,1,1,5,5,9,0,0,5,0,5,5,347.txt
0,0,0,0,0,0,0,0,22,21,0,18,0,0,0,0,0,0,0,0,0,0,0,0,0,10,12,0,9,9,0,0,0,0,0,0,2,5,4,2,2,4,2,26,2,0,4,4,6,6,9,0,0,0,2,6,9,349.txt
0,0,0,0,0,0,0,0,22,21,13,4,3,3,18,0,0,0,0,0,0,0,0,0,0,10,12,0,9,9,0,0,0,0,0,0,2,5,4,2,2,4,2,26,2,19,4,4,6,6,9,0,0,5,0,6,9,352.txt
0,0,0,0,0,23,2,16,22,21,0,18,0,0,0,0,0,0,0,0,0,0,0,0,0,10,12,6,9,9,0,18,24,0,0,0,2,5,4,2,2,5,2,26,2,19,4,4,6,6,11,2,11,2,29,6,8,354.txt
0,0,0,0,0,0,0,0,22,21,13,4,3,3,18,0,0,0,0,0,0,0,0,0,0,10,12,1,9,9,0,0,0,0,0,0,1,1,1,1,1,1,1,1,1,19,1,1,1,1,9,20,0,7,0,1,1,358.txt
0,0,0,0,0,0,0,0,22,21,13,4,3,3,18,0,0,0,0,0,0,0,0,0,0,10,12,1,9,9,0,0,0,0,0,0,1,1,1,1,1,1,1,1,1,19,1,1,1,1,9,1,1,1,1,1,1,360.txt
0,0,0,0,0,23,2,16,22,21,0,18,0,0,0,0,0,0,0,0,0,0,0,0,0,10,12,7,9,9,22,0,0,0,0,0,2,12,18,2,2,6,2,26,2,19,18,12,15,18,9,14,11,14,30,23,25,362.txt
0,0,0,0,0,0,0,0,22,21,13,4,3,3,18,0,0,0,0,0,0,0,0,0,0,10,12,0,9,9,0,0,0,0,0,0,2,5,4,2,2,10,2,26,2,19,4,4,6,4,9,0,0,5,0,4,4,364.txt
0,0,0,0,0,0,0,0,22,21,13,4,3,3,18,0,0,0,0,0,0,0,0,0,0,10,12,1,9,9,0,0,0,0,0,0,1,1,1,1,1,1,1,1,1,19,1,1,8,7,9,1,1,1,1,1,1,365.txt
0,0,0,0,0,0,0,0,22,21,13,4,3,3,18,0,0,0,0,0,0,0,0,0,0,10,12,1,9,9,0,0,0,0,0,2,1,1,1,1,1,27,1,1,1,19,1,1,5,5,9,1,1,1,1,5,5,368.txt
0,0,0,0,0,0,0,0,22,21,13,4,3,3,18,0,0,0,0,0,0,0,0,0,0,10,12,11,9,9,0,0,0,0,0,0,23,4,5,21,24,5,12,18,29,19,5,17,25,11,9,8,11,8,0,6,30,369.txt
0,0,0,0,0,0,0,0,22,21,13,4,3,3,18,0,0,0,0,0,0,0,0,0,0,10,12,1,9,9,21,0,0,0,0,0,1,1,1,1,1,1,1,1,1,19,1,1,5,5,9,1,1,1,1,5,5,371.txt
29,19,15,21,20,26,17,11,20,1,16,8,29,17,9,10,18,25,15,28,6,15,6,28,6,27,20,25,27,30,29,8,11,28,7,20,13,0,17,16,5,21,5,5,20,22,23,28,17,29,24,9,15,10,27,26,27,375.txt
0,0,0,0,0,0,0,0,22,21,0,18,0,0,0,0,0,0,0,0,0,0,0,0,0,10,12,0,9,9,0,0,0,0,0,0,2,5,4,2,2,4,2,26,2,0,4,4,6,6,9,0,0,5,0,6,9,377.txt
0,0,0,0,0,0,0,0,22,21,13,4,3,3,18,0,0,0,0,0,0,0,0,0,0,10,12,1,9,9,21,0,0,0,0,0,1,1,1,1,1,1,1,1,1,19,1,1,5,5,9,1,1,1,1,5,5,380.txt
20,11,1,15,28,29,12,9,26,26,6,20,27,6,27,30,1,3,14,20,1,1,18,3,8,1,22,20,11,10,15,16,30,1,11,1,30,13,19,14,2,7,2,26,3,9,18,14,15,18,7,9,22,10,14,24,21,382.txt
0,0,0,0,0,0,0,0,1,21,13,4,3,3,18,0,0,0,0,0,0,0,0,0,0,10,12,1,9,9,0,0,0,0,0,0,1,1,1,1,1,1,1,1,1,0,1,1,5,5,9,1,1,1,1,5,5,385.txt
20,19,15,21,15,23,29,13,20,1,8,15,16,7,16,21,21,8,1,14,6,15,6,28,6,21,8,26,22,21,7,1,10,6,8,1,2,2,2,2,16,27,27,24,2,10,22,20,23,3,17,10,26,11,14,25,28,386.txt
0,0,0,0,0,23,2,16,22,21,0,18,0,0,0,0,0,0,0,0,0,0,0,0,0,10,12,6,9,9,21,0,0,0,0,0,6,4,5,6,27,5,23,6,6,19,5,17,4,8,9,8,11,8,0,6,30,387.txt
0,0,0,0,0,0,0,0,22,21,13,4,3,3,18,0,0,0,0,0,0,0,0,0,0,10,12,6,9,9,0,0,0,0,0,0,2,28,24,2,2,6,2,26,2,19,14,12,15,14,9,2,11,2,0,23,25,391.txt
0,0,0,0,0,0,0,0,22,21,20,4,3,3,18,0,0,0,0,0,0,0,0,0,0,10,12,0,9,9,0,0,0,0,0,0,2,5,4,2,2,4,2,26,2,0,4,4,6,6,9,0,0,0,0,6,9,394.txt
0,0,0,0,0,0,0,0,22,21,13,4,3,3,18,0,0,0,0,0,0,0,0,0,0,10,12,1,9,9,21,0,0,0,0,0,1,1,1,1,1,1,1,1,1,0,1,1,5,5,9,0,0,5,13,5,5,395.txt
0,0,0,0,0,0,0,0,22,21,13,4,3,3,18,0,0,0,0,0,0,0,0,0,0,10,12,1,9,9,0,0,0,0,0,0,1,1,1,1,1,1,1,1,1,19,1,1,1,1,9,1,1,1,1,1,1,397.txt
0,11,0,15,0,0,0,0,1,3,2,2,2,2,2,13,6,3,3,19,1,1,1,27,1,5,3,1,3,3,3,4,4,3,3,4,1,1,1,1,1,1,1,1,1,5,1,1,5,5,1,1,1,1,1,5,5,400.txt
0,0,0,0,12,0,0,0,1,4,13,22,18,20,18,2,2,2,22,7,2,30,4,4,2,2,2,5,7,4,4,3,3,5,5,0,18,20,23,8,18,1,29,22,16,0,11,5,5,5,2,1,1,1,1,5,5,402.txt
0,0,0,0,0,0,0,0,22,21,13,4,3,3,18,0,0,0,0,0,0,0,0,0,0,10,12,0,9,9,0,0,0,0,0,0,2,5,4,2,2,1,2,26,2,19,4,4,6,4,9,0,0,5,0,4,4,405.txt
0,0,0,0,0,0,0,0,22,21,13,4,3,3,18,0,0,0,0,0,0,0,0,0,0,10,12,1,9,9,0,0,0,0,0,0,1,1,1,1,1,1,1,1,1,19,1,1,5,5,9,6,5,5,0,5,5,407.txt
20,11,1,3,28,0,0,0,1,5,3,3,4,4,4,30,6,1,9,20,6,15,6,30,6,5,7,0,5,6,7,1,11,7,8,1,2,5,4,2,2,4,2,26,2,9,4,4,6,6,5,0,0,5,0,8,9,411.txt
0,0,0,0,0,23,2,16,22,21,0,18,0,0,0,0,29,0,0,0,0,0,0,0,0,10,12,0,9,9,19,0,0,0,0,0,2,28,24,2,2,6,2,26,2,18,18,12,15,18,9,0,0,21,12,23,25,413.txt
0,0,0,0,0,0,0,0,22,21,13,4,3,3,18,0,0,0,0,0,0,0,0,0,0,10,12,1,9,9,21,0,0,0,0,0,1,1,1,1,1,1,1,1,1,19,1,1,5,5,9,0,0,5,0,5,5,416.txt
18,18,11,15,20,0,0,0,7,3,2,2,2,2,2,17,21,3,3,17,1,1,1,27,1,27,3,1,3,3,3,4,4,3,3,4,1,1,1,1,1,1,1,1,1,5,1,1,5,5,8,1,1,1,1,5,5,417.txt
0,0,9,0,0,0,0,0,22,21,13,4,3,3,18,5,29,12,13,0,0,13,9,9,10,10,12,1,9,9,0,0,0,0,0,0,1,1,1,1,1,1,1,1,1,18,1,1,1,1,9,1,1,1,1,1,1,419.txt
0,0,0,15,0,0,0,0,22,21,13,4,3,3,18,0,0,0,0,0,3,10,27,27,3,1,3,1,11,10,7,17,1,23,8,9,1,1,1,1,1,1,1,1,1,11,1,1,5,5,9,0,0,5,18,5,5,421.txt
0,0,0,0,0,0,0,0,22,21,13,4,3,3,18,0,0,0,0,0,0,0,0,0,0,10,12,1,9,9,0,0,0,0,0,0,1,1,1,1,1,1,1,1,1,19,1,1,5,5,9,1,1,1,1,5,5,423.txt
0,0,0,0,0,0,0,0,22,21,0,18,0,0,0,0,29,0,0,0,0,0,0,0,0,10,12,0,9,9,0,0,0,0,0,0,2,2,2,2,2,27,2,26,2,18,22,20,23,3,9,0,0,21,2,25,28,425.txt
0,0,0,0,0,0,0,0,22,21,13,4,3,3,18,0,0,0,0,0,0,0,0,0,0,10,12,1,9,9,0,0,0,0,0,0,1,1,1,1,1,4,1,1,1,19,1,1,5,5,9,1,1,1,1,5,5,427.txt
0,0,0,0,0,0,0,0,22,21,13,4,3,3,18,0,0,0,0,0,0,0,0,0,0,10,12,1,9,9,21,0,0,0,0,0,1,1,1,1,1,1,1,1,1,19,1,1,5,5,9,1,1,1,1,5,5,430.txt
0,0,0,0,0,0,0,0,22,21,13,4,3,3,18,0,0,0,0,0,0,0,0,0,0,10,12,0,9,9,0,0,0,0,0,0,2,5,4,2,2,4,2,26,2,19,4,4,6,6,9,0,0,5,0,6,9,434.txt
0,0,0,0,0,0,0,0,22,21,13,4,3,3,18,0,0,0,0,0,0,0,0,0,0,10,12,1,9,9,21,0,0,0,0,0,1,1,1,1,1,1,1,1,1,19,1,1,5,5,9,8,30,8,0,5,5,436.txt
0,0,0,0,0,0,0,0,22,21,13,4,3,3,18,0,0,0,0,0,0,0,0,0,0,10,12,1,9,9,0,0,0,0,0,0,1,1,1,1,1,1,1,1,1,19,1,1,5,5,9,1,1,1,1,5,5,439.txt
0,0,0,0,0,0,0,0,22,21,13,4,3,3,18,0,0,0,0,0,0,0,0,0,0,10,12,1,9,9,21,0,0,0,0,0,1,1,1,1,1,1,1,1,1,19,1,1,8,7,9,22,0,6,0,1,1,444.txt
0,0,0,0,0,0,0,0,22,21,13,4,3,3,18,0,0,0,0,0,0,0,0,0,0,10,12,1,9,9,0,0,0,0,0,0,1,1,1,1,1,1,1,1,1,19,1,1,5,5,9,19,0,5,0,5,5,447.txt
0,0,0,0,0,4,3,21,22,21,0,18,0,0,0,0,0,0,0,0,0,0,0,0,0,10,12,18,9,9,19,0,0,0,0,0,6,4,5,6,0,4,0,6,6,3,5,17,10,6,9,6,5,6,12,6,24,449.txt
0,0,0,0,0,0,0,0,22,21,13,4,3,3,18,0,0,0,0,0,0,0,0,0,0,10,12,1,9,9,0,0,0,0,0,0,1,1,1,1,1,1,1,1,1,19,1,1,5,5,9,1,1,1,1,5,5,452.txt
0,0,0,0,0,0,0,0,22,21,13,4,3,3,18,0,0,0,0,0,0,0,0,0,0,10,12,0,9,9,21,0,0,0,0,2,2,12,18,2,2,1,2,26,2,19,16,12,15,16,9,0,0,5,12,23,25,454.txt
0,0,0,0,0,0,0,0,22,21,13,4,3,3,18,0,0,0,0,0,0,0,0,0,0,10,12,1,9,9,0,0,0,0,0,0,1,1,1,1,1,1,1,1,1,0,1,1,5,5,9,0,0,5,13,5,5,456.txt
0,0,0,0,0,0,0,0,22,21,13,4,3,3,18,0,0,0,0,0,0,0,0,0,0,10,12,1,9,9,0,0,0,0,0,0,1,1,1,1,1,1,1,1,1,19,1,1,5,5,9,1,1,1,1,5,5,458.txt
0,0,0,0,0,0,0,0,22,21,13,4,3,3,18,0,0,0,0,0,0,0,0,0,0,10,12,0,9,9,0,0,0,0,0,0,2,5,4,2,2,1,2,26,2,19,4,11,6,4,9,19,0,5,0,4,4,460.txt
0,0,0,0,0,0,0,0,22,21,13,4,3,3,18,0,0,0,0,0,0,0,0,0,0,10,12,11,9,9,0,0,0,0,0,0,3,5,11,3,2,5,2,26,7,19,13,4,6,8,9,8,11,8,0,6,24,463.txt
0,0,0,0,0,0,0,0,22,21,13,4,3,3,18,0,0,0,0,0,0,0,0,0,0,10,12,0,9,9,0,0,0,0,0,0,2,5,4,2,2,4,2,26,2,19,4,4,6,4,9,0,0,5,0,4,4,465.txt
0,0,0,0,0,0,0,0,22,21,20,4,3,3,18,0,0,0,0,0,0,0,0,0,0,10,12,0,9,9,0,0,0,0,0,0,24,5,4,21,5,4,5,5,28,0,4,4,6,4,9,0,0,21,18,4,4,469.txt
18,11,1,15,28,0,0,0,1,5,3,3,4,4,4,13,6,3,3,19,1,1,1,27,1,5,3,1,5,6,7,17,1,7,8,20,1,1,1,1,1,1,1,1,1,15,1,1,5,5,1,13,14,5,12,5,5,472.txt
0,0,0,0,0,0,0,0,22,21,13,4,3,3,18,0,0,0,0,0,0,0,0,0,0,10,12,0,9,9,0,0,0,0,0,0,2,2,2,2,2,27,2,26,2,19,22,20,23,3,9,0,0,5,12,25,28,473.txt
0,0,0,0,0,0,0,0,22,21,13,4,3,3,18,0,0,0,0,0,0,0,0,0,0,10,12,1,9,9,21,0,0,0,0,0,1,1,1,1,1,1,1,1,1,19,1,1,5,5,9,1,1,1,1,5,5,475.txt
0,0,0,0,0,0,0,0,22,21,13,4,3,3,18,0,0,0,0,0,0,0,0,0,0,10,12,1,9,9,0,0,0,0,0,0,1,1,1,1,1,1,1,1,1,0,1,1,5,5,9,0,0,5,0,5,5,477.txt
0,0,0,0,0,0,0,0,22,21,13,4,3,3,18,0,0,0,0,0,0,0,0,0,0,10,12,1,9,9,0,0,0,0,0,0,1,1,1,1,1,1,1,1,1,19,1,1,5,5,9,0,0,5,0,5,5,479.txt
0,0,0,0,0,0,0,0,22,21,13,4,3,3,18,0,0,0,0,0,0,0,0,0,0,10,12,0,9,9,0,0,0,0,0,0,2,5,4,2,2,10,2,26,2,19,4,4,6,4,9,0,0,5,0,4,4,481.txt
0,0,0,0,0,0,0,0,22,21,13,4,3,3,18,0,0,0,0,0,0,0,0,0,0,10,12,1,9,9,0,0,0,0,0,0,1,1,1,1,1,1,1,1,1,19,1,1,5,5,9,1,1,1,1,5,5,485.txt
0,0,0,0,0,0,0,0,22,21,13,4,3,3,18,0,0,0,0,0,0,0,0,0,0,10,12,1,9,9,0,0,0,0,0,0,1,1,1,1,1,1,1,1,1,19,1,1,5,5,9,1,1,1,1,5,5,487.txt
0,0,0,0,12,0,0,0,3,4,13,4,3,3,18,2,2,2,22,7,2,30,4,4,2,2,2,1,7,4,0,3,3,0,0,0,1,1,1,1,1,1,1,1,1,19,1,1,5,5,2,0,0,5,0,5,5,488.txt
0,0,0,0,0,0,0,0,22,21,13,4,3,3,18,0,0,0,0,0,0,0,0,0,0,10,12,1,9,9,0,0,0,0,0,0,1,1,1,1,1,1,1,1,1,19,1,1,5,5,9,1,1,1,1,5,5,491.txt
0,0,0,0,0,0,0,0,22,21,13,4,3,3,18,0,0,0,0,0,0,0,0,0,0,10,12,1,9,9,0,0,0,0,0,0,1,1,1,1,1,1,1,1,1,19,1,1,5,5,9,0,0,5,0,5,5,492.txt
0,0,0,0,0,0,0,0,22,21,13,4,3,3,18,0,0,0,0,0,0,0,0,0,0,10,12,0,9,9,0,0,0,0,0,0,2,5,4,2,2,4,2,26,2,19,4,4,6,4,9,0,0,5,0,4,4,494.txt
0,0,9,0,12,0,0,0,22,21,0,18,0,0,0,5,29,6,6,8,0,13,9,9,10,10,12,4,9,9,0,0,0,0,0,0,13,14,25,16,15,4,17,17,9,18,9,21,4,22,2,22,0,6,0,9,9,496.txt
0,0,0,0,0,0,0,0,22,21,13,4,3,3,18,0,0,0,0,0,0,0,0,0,0,10,12,1,9,9,0,0,0,0,0,0,1,1,1,1,1,4,1,1,1,19,1,1,5,5,9,1,1,1,1,5,5,498.txt
0,0,0,0,0,0,0,0,22,21,13,4,3,3,18,0,0,0,0,0,0,0,0,0,0,10,12,1,9,9,21,0,0,0,0,0,1,1,1,1,1,1,1,1,1,19,1,1,5,5,9,0,0,7,0,5,5,500.txt
0,0,0,0,0,23,2,16,22,21,13,4,3,3,18,0,0,0,0,0,0,0,0,0,0,10,12,29,9,9,0,0,0,0,0,0,13,4,5,16,12,4,12,13,20,19,5,6,24,6,9,0,0,6,13,6,9,502.txt
0,0,0,0,0,0,0,0,22,21,20,4,3,3,18,0,0,0,0,0,0,0,0,0,0,10,12,0,9,9,0,0,0,0,0,0,2,28,24,2,2,1,2,26,2,0,14,12,15,14,9,0,0,5,2,23,25,503.txt
0,0,0,0,0,0,0,0,22,21,13,4,3,3,18,0,0,0,0,0,0,0,0,0,0,10,12,0,9,9,21,0,0,0,0,0,2,2,2,2,2,27,2,26,2,19,22,20,23,3,9,0,0,5,2,25,28,505.txt
0,0,0,0,0,0,0,0,22,21,13,4,3,3,18,0,0,0,0,0,0,0,0,0,0,10,12,1,9,9,0,0,0,0,0,0,1,1,1,1,1,1,1,1,1,19,1,1,5,5,9,1,1,1,1,5,5,507.txt
0,0,0,0,0,0,0,0,22,21,13,4,3,3,18,0,0,0,0,0,0,0,0,0,0,10,12,11,9,9,19,0,0,0,0,0,2,6,11,2,2,1,2,26,27,19,4,11,7,4,9,8,11,8,0,4,4,510.txt
0,0,0,0,0,0,0,0,22,21,13,4,3,3,18,0,0,0,0,0,0,0,0,0,0,10,12,1,9,9,21,0,0,0,0,0,1,1,1,1,1,1,1,1,1,19,1,1,5,5,9,1,1,1,1,5,5,513.txt
0,0,0,0,0,0,0,0,22,21,13,4,3,3,18,0,0,0,0,0,0,0,0,0,0,10,12,1,9,9,0,0,0,0,0,0,1,1,1,1,1,1,1,1,1,19,1,1,5,5,11,1,1,1,1,5,5,516.txt
0,0,0,0,0,0,0,0,22,21,0,18,0,0,0,0,0,0,0,0,0,0,0,0,0,10,12,0,9,9,21,0,0,0,0,2,2,12,18,2,2,8,2,26,2,19,16,13,15,16,9,0,0,5,2,13,14,518.txt
20,11,1,15,28,16,19,26,1,5,3,3,4,4,4,30,6,1,9,20,14,14,14,14,25,5,19,28,5,6,14,17,29,7,12,24,13,6,26,16,23,13,22,18,10,8,29,9,7,22,5,8,30,8,11,8,30,521.txt
18,19,15,15,20,16,18,27,21,6,9,15,16,22,16,10,26,26,30,23,3,15,27,28,18,27,3,1,26,13,7,17,9,26,8,21,1,1,1,1,1,1,1,1,1,11,1,1,5,5,29,10,19,11,18,5,5,524.txt
0,19,9,3,0,0,0,0,22,1,1,6,6,12,6,3,3,8,1,3,6,5,6,26,6,21,28,4,22,21,1,1,19,15,1,20,5,11,26,21,13,15,15,12,23,15,30,9,4,6,1,0,0,0,0,8,9,527.txt
0,0,0,0,0,0,0,0,22,21,13,4,3,3,18,0,0,0,0,0,0,0,0,0,0,10,12,1,9,9,0,0,0,0,0,0,1,1,1,1,1,1,1,1,1,19,1,1,5,5,9,1,1,1,1,5,5,529.txt
0,0,0,0,0,0,0,0,22,21,13,4,3,3,18,0,0,0,0,0,0,0,0,0,0,10,12,1,9,9,0,0,0,0,0,0,1,1,1,1,1,1,1,1,1,19,1,1,5,5,9,19,0,5,12,5,5,530.txt
0,0,0,0,0,0,0,0,22,21,13,4,3,3,18,0,0,0,0,0,0,0,0,0,0,10,12,1,9,9,0,0,0,0,0,0,1,1,1,1,1,1,1,1,1,19,1,1,5,5,9,0,0,5,2,5,5,532.txt
0,0,0,0,0,0,0,0,22,21,13,4,3,3,18,0,0,0,0,0,0,0,0,0,0,10,12,0,9,9,0,0,0,0,0,0,19,5,4,22,12,4,12,21,18,19,4,4,6,6,9,0,0,0,2,6,6,534.txt
0,0,0,0,0,0,0,0,22,21,13,4,3,3,18,0,0,0,0,0,0,0,0,0,0,10,12,1,9,9,0,0,0,0,0,0,1,1,1,1,1,1,1,1,1,19,1,1,5,5,11,1,1,1,1,5,5,536.txt
0,0,0,0,0,0,0,0,22,21,13,4,3,3,18,0,0,0,0,0,0,0,0,0,0,10,12,1,9,9,21,0,0,0,0,0,1,1,1,1,1,1,1,1,1,19,1,1,5,5,9,1,1,1,1,5,5,538.txt
0,0,0,0,0,0,0,0,22,21,0,18,0,0,0,0,0,0,0,0,0,0,0,0,0,10,12,0,9,9,19,0,0,0,0,0,2,28,24,2,2,6,2,26,2,19,0,12,29,0,9,0,0,5,12,23,25,541.txt
0,0,0,0,0,0,0,0,22,21,13,4,3,3,18,0,0,0,0,0,0,0,0,0,0,10,12,1,9,9,0,0,0,0,0,0,1,1,1,1,1,1,1,1,1,19,1,1,5,5,11,0,0,5,3,5,5,543.txt
0,0,0,0,0,0,0,0,22,21,20,4,3,3,18,0,0,0,0,0,0,0,0,0,0,10,12,1,9,9,0,0,0,0,0,0,1,1,1,1,1,1,1,1,1,0,1,1,8,7,9,1,1,1,1,1,1,545.txt
0,0,0,0,0,0,0,0,22,21,13,4,3,3,18,0,0,0,0,0,0,0,0,0,0,10,12,1,9,9,21,0,0,0,0,0,1,1,1,1,1,1,1,1,1,19,1,1,5,5,9,1,1,1,1,5,5,549.txt
0,0,0,0,0,0,0,0,22,21,13,4,3,3,18,0,0,0,0,0,0,0,0,0,0,10,12,29,9,9,21,0,0,0,0,0,6,2,2,6,0,1,0,6,6,0,22,20,23,3,9,0,0,5,0,25,28,551.txt
0,0,0,0,0,0,0,0,22,21,13,4,3,3,18,0,0,0,0,0,0,0,0,0,0,10,12,1,9,9,21,0,0,0,0,0,1,1,1,1,1,1,1,1,1,19,1,1,5,5,9,0,0,5,0,5,5,554.txt
0,0,0,0,0,0,0,0,22,21,13,4,3,3,18,0,0,0,0,0,0,0,0,0,0,10,12,0,9,9,21,0,0,0,0,0,2,12,14,2,2,6,2,26,2,19,18,12,15,18,9,0,0,5,0,23,25,557.txt
0,0,0,0,0,0,0,0,22,21,0,18,0,0,0,0,0,0,0,0,0,0,0,0,0,10,12,0,9,9,21,0,0,0,0,0,2,5,4,2,2,4,2,26,2,19,4,4,6,6,9,0,0,21,0,6,9,558.txt
0,0,0,0,0,0,0,0,22,21,13,4,3,3,18,0,0,0,0,0,0,0,0,0,0,10,12,0,9,9,0,0,0,0,0,0,2,5,4,2,2,1,2,26,2,19,4,4,6,4,9,0,0,5,0,4,4,561.txt
20,19,15,3,2,8,19,27,2,5,3,3,4,4,4,9,9,1,1,10,6,15,6,28,6,21,7,0,22,21,7,1,10,25,8,1,2,12,14,2,2,6,2,26,2,8,18,12,15,18,5,0,0,5,18,23,25,564.txt
0,0,0,0,0,0,0,0,22,21,13,4,3,3,18,0,0,0,0,0,0,0,0,0,0,10,12,1,9,9,0,0,0,0,0,0,1,1,1,1,1,1,1,1,1,19,1,1,5,5,9,8,11,8,0,5,5,566.txt
0,0,0,0,0,0,0,0,22,21,20,4,3,3,18,0,0,0,0,0,0,0,0,0,0,10,12,0,9,9,21,0,0,0,0,0,6,4,4,6,0,4,0,6,6,0,4,4,4,6,9,0,0,21,0,6,9,568.txt
0,0,0,0,0,0,0,0,22,21,13,4,3,3,18,0,0,0,0,0,0,0,0,0,0,10,12,1,9,9,21,0,0,0,0,0,1,1,1,1,1,1,1,1,1,19,1,1,5,5,9,19,0,5,0,5,5,572.txt
0,0,0,0,0,0,0,0,22,21,13,4,3,3,18,0,0,0,0,0,0,0,0,0,0,10,12,1,9,9,0,0,0,0,0,0,1,1,1,1,1,1,1,1,1,19,1,1,5,5,9,1,1,1,1,5,5,574.txt
0,0,0,0,0,0,0,0,22,21,13,4,3,3,18,0,0,0,0,0,0,0,0,0,0,10,12,1,9,9,19,0,0,0,0,0,1,1,1,1,1,1,1,1,1,19,1,1,5,5,9,0,0,5,18,5,5,576.txt
0,0,0,0,0,0,0,0,22,21,13,4,3,3,18,0,0,0,0,0,0,0,0,0,0,10,12,1,9,9,21,0,0,0,0,0,1,1,1,1,1,1,1,1,1,19,1,1,5,5,9,1,1,1,1,5,5,578.txt
0,0,0,0,0,0,0,0,22,21,13,4,3,3,18,0,0,0,0,0,0,0,0,0,0,10,12,0,9,9,0,0,0,0,0,0,2,28,24,2,2,6,2,26,2,19,14,12,15,14,9,0,0,5,2,23,25,580.txt
0,0,0,0,0,0,0,0,22,21,13,4,3,3,18,0,0,0,0,0,0,0,0,0,0,10,12,1,9,9,0,0,0,0,0,0,1,1,1,1,1,1,1,1,1,0,1,1,5,5,9,1,1,1,1,5,5,582.txt
0,0,0,0,0,0,0,0,22,21,13,4,3,3,18,0,0,0,0,0,0,0,0,0,0,10,12,1,9,9,0,0,0,0,0,0,1,1,1,1,1,1,1,1,1,19,1,1,5,5,9,1,1,1,1,5,5,584.txt
18,11,1,15,28,0,0,0,1,5,3,3,4,4,4,13,6,8,7,16,1,1,1,26,1,5,3,1,22,21,7,1,1,7,8,9,1,1,1,1,1,4,1,1,1,15,1,1,5,5,1,0,0,0,18,5,5,586.txt
0,0,0,0,0,0,0,0,22,21,13,4,3,3,18,0,0,0,0,0,0,0,0,0,0,10,12,1,9,9,19,0,0,0,0,0,1,1,1,1,1,1,1,1,1,19,1,1,5,5,9,0,0,7,0,5,5,588.txt
0,0,0,0,0,0,0,0,22,21,13,4,3,3,18,0,0,0,0,0,0,0,0,0,0,10,12,1,9,9,0,0,0,0,0,0,1,1,1,1,1,1,1,1,1,19,1,1,5,5,9,8,15,8,0,5,5,591.txt
0,0,0,0,0,0,0,0,22,21,13,4,3,3,18,0,0,0,0,0,0,0,0,0,0,10,12,0,9,9,21,0,0,0,0,0,2,5,4,2,2,4,2,26,2,19,4,4,6,4,9,0,0,5,0,4,4,594.txt
0,0,0,0,0,0,0,0,22,21,13,4,3,3,18,0,0,0,0,0,0,0,0,0,0,10,12,1,9,9,21,0,0,0,0,0,1,1,1,1,1,1,1,1,1,0,1,1,5,5,9,1,1,1,1,5,5,596.txt
0,0,9,0,0,0,0,0,22,21,13,4,3,3,18,0,0,0,0,0,0,0,0,0,0,10,12,1,9,9,0,0,0,0,0,0,1,1,1,1,1,1,1,1,1,19,1,1,5,5,11,1,1,1,1,5,5,598.txt
0,0,0,0,0,0,0,0,22,21,13,4,3,3,18,0,0,0,0,0,0,0,0,0,0,10,12,1,9,9,0,0,0,0,0,0,1,1,1,1,1,1,1,1,1,19,1,1,5,5,9,22,0,5,0,5,5,600.txt
0,0,0,0,0,0,0,0,22,21,13,4,3,3,18,0,0,0,0,0,0,0,0,0,0,10,12,1,9,9,0,0,0,0,0,0,1,1,1,1,1,1,1,1,1,19,1,1,5,5,9,1,1,1,1,5,5,603.txt
0,0,0,0,0,0,0,0,22,21,13,4,3,3,18,0,0,0,0,0,0,0,0,0,0,10,12,0,9,9,21,0,0,0,0,0,2,5,4,2,2,4,2,26,2,19,4,4,6,4,9,0,0,5,0,4,4,604.txt
0,0,0,0,0,0,0,0,22,21,13,4,3,3,18,0,0,0,0,0,0,0,0,0,0,10,12,1,9,9,19,0,0,0,0,0,1,1,1,1,1,1,1,1,1,19,1,1,1,1,9,0,0,7,13,10,10,606.txt
0,0,0,0,0,0,0,0,22,21,13,4,3,3,18,0,0,0,0,0,0,0,0,0,0,10,12,1,9,9,21,0,0,0,0,0,1,1,1,1,1,1,1,1,1,19,1,1,5,5,9,1,1,1,1,5,5,607.txt
0,0,0,0,0,0,0,0,22,21,13,4,3,3,18,0,0,0,0,0,0,0,0,0,0,10,12,0,9,9,0,18,24,0,0,0,2,5,4,2,2,4,2,26,2,19,4,4,6,6,9,0,0,5,3,6,9,613.txt
0,0,0,0,0,0,0,0,22,21,13,4,3,3,18,0,0,0,0,0,0,0,0,0,0,10,12,1,9,9,0,0,0,0,0,0,1,1,1,1,1,1,1,1,1,19,1,1,5,5,9,1,1,1,1,5,5,615.txt
0,0,0,0,0,0,0,0,22,21,13,4,3,3,18,0,0,0,0,0,0,0,0,0,0,10,12,1,9,9,21,0,0,0,0,0,1,1,1,1,1,1,1,1,1,19,1,1,5,5,9,1,1,1,1,5,5,618.txt
0,0,0,0,0,0,0,0,22,21,13,4,3,3,18,0,0,0,0,0,0,0,0,0,0,10,12,1,9,9,0,0,0,0,0,0,1,1,1,1,1,1,1,1,1,19,1,1,8,7,9,1,1,1,1,1,1,621.txt
0,0,0,0,0,0,0,0,7,21,13,4,3,3,18,0,0,0,0,0,0,0,0,0,0,10,12,1,9,9,0,0,0,0,0,0,1,1,1,1,1,1,1,1,1,19,1,1,5,5,9,1,1,1,1,5,5,623.txt
20,19,15,3,2,23,29,13,2,5,3,3,4,4,4,9,9,1,9,10,3,15,27,28,18,12,19,9,10,13,7,11,11,28,8,22,15,2,2,18,23,2,12,25,10,8,27,3,3,3,17,8,19,8,18,25,28,624.txt
0,0,0,0,0,0,0,0,22,21,13,4,3,3,18,0,0,0,0,0,0,0,0,0,0,10,12,1,9,9,0,0,0,0,0,0,1,1,1,1,1,1,1,1,1,19,1,1,5,5,9,1,1,1,1,5,5,627.txt
0,0,0,0,0,0,0,0,22,21,13,4,3,3,18,0,0,0,0,0,0,0,0,0,0,10,12,1,9,9,0,0,0,0,0,0,1,1,1,1,1,1,1,1,1,19,1,1,5,5,9,1,1,1,1,5,5,628.txt
0,0,0,0,0,0,0,0,22,21,13,4,3,3,18,0,0,0,0,0,0,0,0,0,0,10,12,1,9,9,0,0,0,0,0,0,1,1,1,1,1,1,1,1,1,0,1,1,5,5,9,1,1,1,1,5,5,629.txt
9,18,11,15,20,27,10,4,23,18,9,8,28,22,9,20,27,10,3,24,5,9,5,17,9,22,14,17,23,13,11,12,1,26,14,24,10,15,12,4,9,16,10,10,13,23,26,15,22,21,8,8,23,8,11,22,11,631.txt
0,0,0,0,22,26,11,11,22,21,0,18,0,0,0,0,29,0,0,7,0,0,0,0,0,10,12,11,9,9,0,0,0,0,0,5,2,12,13,2,2,7,2,26,27,18,18,22,28,18,18,30,15,28,17,26,27,633.txt
0,0,0,0,0,0,0,0,22,21,13,4,3,3,18,0,0,0,0,0,0,0,0,0,0,10,12,1,9,9,0,0,0,0,0,0,1,1,1,1,1,1,1,1,1,19,1,1,5,5,9,1,1,1,1,5,5,635.txt
0,0,0,0,0,0,0,0,22,21,13,4,3,3,18,0,0,0,0,0,0,0,0,0,0,10,12,1,9,9,21,0,0,0,0,0,1,1,1,1,1,1,1,1,1,19,1,1,5,5,9,0,0,5,0,5,5,637.txt
0,0,0,0,0,0,0,0,22,21,13,4,3,3,18,0,0,0,0,0,0,0,0,0,0,10,12,1,9,9,0,0,0,0,0,0,1,1,1,1,1,1,1,1,1,19,1,1,8,7,9,1,1,1,1,1,1,642.txt
0,0,0,0,0,0,0,0,22,21,13,4,3,3,18,0,0,0,0,0,0,0,0,0,0,10,12,1,9,9,21,0,0,0,0,0,1,1,1,1,1,1,1,1,1,19,1,1,5,5,9,0,0,5,18,5,5,645.txt
20,11,1,15,28,0,0,0,13,6,6,17,21,6,24,29,1,10,15,1,1,1,1,13,1,1,30,26,11,10,29,8,1,1,30,18,8,8,9,7,3,7,18,3,7,9,15,22,13,25,27,29,22,30,14,12,12,647.txt
0,0,0,0,0,0,0,0,22,21,13,4,3,3,18,0,0,0,0,0,0,0,0,0,0,10,12,1,9,9,0,0,0,0,0,2,1,1,1,1,1,1,1,1,1,19,1,1,5,5,9,1,1,1,1,5,5,650.txt
0,0,0,0,0,0,0,0,22,21,13,4,3,3,18,0,0,0,0,0,0,0,0,0,0,10,12,0,9,9,21,0,0,0,0,0,2,5,11,2,2,5,2,26,27,19,13,11,6,4,9,0,0,5,0,4,4,652.txt
0,0,0,0,0,0,0,0,22,21,20,4,3,3,18,0,0,0,0,0,0,0,0,0,0,10,12,1,9,9,0,0,0,0,0,0,1,1,1,1,1,1,1,1,1,0,1,1,5,5,9,1,1,1,1,5,5,654.txt
0,0,0,0,0,0,0,0,22,21,13,4,3,3,18,0,0,0,0,0,0,0,0,0,0,10,12,0,9,9,0,0,0,0,0,0,2,5,4,2,2,1,2,26,2,19,4,4,6,4,9,19,0,5,0,4,4,657.txt
0,0,0,0,0,0,0,0,22,21,13,4,3,3,18,0,0,0,0,0,0,0,0,0,0,10,12,1,9,9,0,0,0,0,0,0,1,1,1,1,1,1,1,1,1,19,1,1,5,5,9,1,1,1,1,5,5,658.txt
0,0,9,0,0,23,2,16,22,21,0,18,0,0,0,5,0,12,13,0,0,13,9,9,10,10,12,4,9,9,2,0,0,8,4,6,6,2,2,6,0,27,0,6,6,7,22,20,23,3,11,20,0,6,0,25,28,662.txt
0,0,0,0,0,0,0,0,22,21,13,4,3,3,18,0,0,0,0,0,0,0,0,0,0,10,12,1,9,9,0,0,0,0,0,0,1,1,1,1,1,1,1,1,1,19,1,1,5,5,9,29,11,27,5,5,5,663.txt
0,0,0,0,0,0,0,0,22,21,13,4,3,3,18,0,0,0,0,0,0,0,0,0,0,10,12,1,9,9,0,0,0,0,0,0,1,1,1,1,1,1,1,1,1,19,1,1,5,5,9,1,1,1,1,5,5,665.txt
0,0,0,0,0,0,0,0,22,21,13,4,3,3,18,0,0,0,0,0,0,0,0,0,0,10,12,1,9,9,0,0,0,0,0,0,1,1,1,1,1,1,1,1,1,19,1,1,5,5,9,1,1,1,1,5,5,669.txt
0,0,0,0,0,0,0,0,22,21,13,4,3,3,18,0,0,0,0,0,0,0,0,0,0,10,12,1,9,9,0,0,0,0,0,0,1,1,1,1,1,1,1,1,1,19,1,1,5,5,9,19,0,5,12,5,5,671.txt
0,0,0,0,0,0,0,0,22,21,13,4,3,3,18,0,0,0,0,0,0,0,0,0,0,10,12,11,9,9,0,18,24,0,0,0,30,9,11,13,3,10,18,3,7,19,13,11,7,4,9,8,11,8,0,4,4,673.txt
0,0,0,0,0,0,0,0,22,21,13,4,3,3,18,0,0,0,0,0,0,0,0,0,0,10,12,1,9,9,21,0,0,0,0,0,1,1,1,1,1,1,1,1,1,19,1,1,5,5,9,0,0,5,0,5,5,675.txt
20,19,15,3,15,0,0,0,9,1,29,6,6,1,6,3,3,8,1,3,6,15,6,28,6,21,7,0,22,21,7,1,10,25,8,1,12,28,24,3,2,6,2,26,2,11,19,12,0,19,1,0,0,0,0,23,25,678.txt
0,0,0,0,0,0,0,0,22,21,13,4,3,3,18,0,0,0,0,0,0,0,0,0,0,10,12,1,9,9,0,0,0,0,0,0,1,1,1,1,1,1,1,1,1,19,1,1,5,5,9,1,1,1,1,5,5,680.txt
0,0,0,0,0,0,0,0,22,21,13,4,3,3,18,0,0,0,0,0,0,0,0,0,0,10,12,1,9,9,0,0,0,0,0,0,1,1,1,1,1,1,1,1,1,19,1,1,5,5,9,1,1,1,1,5,5,683.txt
0,0,0,0,0,0,0,0,22,21,13,4,3,3,18,0,0,0,0,0,0,0,0,0,0,10,12,1,9,9,21,0,0,0,0,0,1,1,1,1,1,1,1,1,1,19,1,1,5,5,9,1,1,1,1,5,5,685.txt
0,0,0,0,0,0,0,0,22,21,13,4,3,3,18,0,0,0,0,0,0,0,0,0,0,10,12,1,9,9,0,0,0,0,0,0,1,1,1,1,1,1,1,1,1,19,1,1,5,5,9,1,1,1,1,5,5,687.txt
0,0,0,0,0,0,0,0,22,21,13,4,3,3,18,0,0,0,0,0,0,0,0,0,0,10,12,1,9,9,0,0,0,0,0,0,1,1,1,1,1,1,1,1,1,0,1,1,5,5,9,1,1,1,1,5,5,689.txt
0,0,0,0,0,0,0,0,22,21,13,4,3,3,18,0,0,0,0,0,0,0,0,0,0,10,12,0,9,9,21,0,0,0,0,0,2,28,24,2,2,6,2,26,3,19,16,12,16,16,9,19,0,5,0,23,15,691.txt
20,19,15,15,2,0,0,0,2,5,3,3,4,4,4,9,9,1,7,10,20,5,26,26,17,12,15,18,10,11,7,17,10,15,8,24,14,18,18,17,15,17,17,25,10,8,18,28,16,18,16,23,14,6,18,0,17,695.txt
0,0,0,0,0,0,0,0,22,21,13,4,3,3,18,0,0,0,0,0,0,0,0,0,0,10,12,1,9,9,0,0,0,0,0,0,1,1,1,1,1,1,1,1,1,19,1,1,5,5,9,1,1,1,1,5,5,696.txt
0,11,0,15,0,0,0,0,1,14,6,6,6,6,6,13,13,3,14,19,1,1,1,27,1,1,7,0,11,10,7,17,9,9,8,10,2,5,4,2,2,1,2,26,2,9,4,4,6,4,1,0,0,5,0,4,4,700.txt
0,0,0,0,0,0,0,0,22,21,13,4,3,3,18,0,0,0,0,0,0,0,0,0,0,10,12,0,9,9,0,0,0,0,0,0,2,28,24,2,2,1,2,26,2,19,14,12,0,14,9,0,0,5,2,23,25,703.txt
18,18,11,3,2,27,19,4,2,5,3,3,4,4,4,9,3,1,3,10,5,3,5,22,9,12,13,16,10,11,12,11,1,14,15,20,29,15,29,4,1,24,1,1,1,8,6,8,9,21,1,13,4,6,12,22,29,705.txt
0,0,0,0,0,0,0,0,22,21,13,4,3,3,18,0,0,0,0,0,0,0,0,0,0,10,12,1,9,9,0,0,0,0,0,0,1,1,1,1,1,1,1,1,1,19,1,1,5,5,9,0,0,5,0,5,5,706.txt
0,0,0,0,0,0,0,0,22,21,13,4,3,3,18,0,0,0,0,0,0,0,0,0,0,10,12,1,9,9,0,0,0,0,0,0,1,1,1,1,1,4,1,1,1,19,1,1,5,5,9,6,5,0,0,5,5,709.txt
0,0,0,0,0,0,0,0,22,21,13,4,3,3,18,0,0,0,0,0,0,0,0,0,0,10,12,1,9,9,0,0,0,0,0,0,1,1,1,1,1,1,1,1,1,19,1,1,5,5,9,19,0,7,0,5,5,711.txt
0,0,0,0,0,0,0,0,22,21,13,4,3,3,18,0,0,0,0,0,0,0,0,0,0,10,12,1,9,9,0,0,0,0,0,2,1,1,1,1,1,1,1,1,1,19,1,1,5,5,9,21,11,22,17,5,5,712.txt
0,0,0,0,0,0,0,0,22,21,0,18,0,0,0,0,0,0,0,0,0,0,0,0,0,10,12,0,9,9,21,18,25,0,0,0,2,5,25,2,2,27,2,26,2,19,22,20,23,6,9,0,0,21,0,6,9,713.txt
0,0,9,0,0,0,0,0,22,21,0,18,0,0,0,5,29,12,13,0,0,13,9,9,10,10,12,1,9,9,0,0,0,0,0,0,1,1,1,1,1,4,1,1,1,18,1,1,5,5,11,20,0,7,22,5,5,716.txt
0,0,0,0,0,0,0,0,22,21,0,18,0,0,0,0,0,0,0,0,0,0,0,0,0,10,12,0,9,9,21,0,0,0,0,0,2,5,4,2,2,4,2,26,2,19,4,4,6,6,9,0,0,0,0,6,9,722.txt
0,0,0,0,0,0,0,0,22,21,13,4,3,3,18,0,0,0,0,0,0,0,0,0,0,10,12,1,9,9,0,0,0,0,0,0,1,1,1,1,1,1,1,1,1,19,1,1,12,12,9,0,0,5,25,7,7,724.txt
0,0,10,0,0,4,3,21,22,21,0,18,0,0,0,5,0,12,13,0,0,13,9,9,10,10,12,11,9,9,10,0,0,8,10,6,6,4,5,6,0,5,0,6,6,12,5,17,25,11,11,8,10,8,0,6,30,727.txt
0,0,0,0,0,0,0,0,22,21,13,4,3,3,18,0,0,0,0,0,0,0,0,0,0,10,12,0,9,9,0,0,0,0,0,0,2,5,4,2,2,4,2,26,2,0,4,4,6,4,9,0,0,5,0,4,4,728.txt
0,0,0,0,0,0,0,0,22,21,13,4,3,3,18,0,0,0,0,0,0,0,0,0,0,10,12,1,9,9,21,0,0,0,0,0,1,1,1,1,1,1,1,1,1,19,1,1,5,5,9,1,1,1,1,5,5,732.txt
0,0,0,0,0,0,0,0,22,21,13,4,3,3,18,0,0,0,0,0,0,0,0,0,0,10,12,1,9,9,0,0,0,0,0,0,1,1,1,1,1,1,1,1,1,19,1,1,5,5,9,1,1,1,1,5,5,734.txt
0,0,0,0,0,0,0,0,9,21,13,4,3,3,18,0,0,0,0,0,0,0,0,0,0,10,12,29,9,9,21,0,0,0,0,0,21,5,26,25,13,4,15,30,23,19,5,17,6,8,9,0,0,0,25,8,9,735.txt
0,0,0,0,0,0,0,0,22,21,13,4,3,3,18,0,0,0,0,0,0,0,0,0,0,10,12,1,9,9,0,0,0,0,0,0,1,1,1,1,1,1,1,1,1,19,1,1,5,5,9,0,0,5,0,5,5,737.txt
0,0,0,0,0,0,0,0,22,21,13,4,3,3,18,0,0,0,0,0,0,0,0,0,0,10,12,1,9,9,0,0,0,0,0,0,1,1,1,1,1,1,1,1,1,19,1,1,5,5,9,1,1,1,1,5,5,738.txt
0,0,0,0,0,0,0,0,22,21,13,4,3,3,18,0,0,0,0,0,0,0,0,0,0,10,12,1,9,9,0,0,0,0,0,0,1,1,1,1,1,1,1,1,1,19,1,1,5,5,9,1,1,1,1,5,5,741.txt
0,0,0,0,0,0,0,0,22,21,13,4,3,3,18,0,0,0,0,0,0,0,0,0,0,10,12,1,9,9,0,0,0,0,0,0,1,1,1,1,1,1,1,1,1,19,1,1,8,7,9,0,0,6,18,1,1,743.txt
0,0,0,0,0,0,0,0,22,21,20,4,3,3,18,0,0,0,0,0,0,0,0,0,0,10,12,1,9,9,21,0,0,0,0,0,1,1,1,1,1,1,1,1,1,0,1,1,5,5,9,1,1,1,1,5,5,747.txt
0,0,0,0,0,0,0,0,22,21,0,18,0,0,0,0,0,0,0,0,0,0,0,0,0,10,12,0,9,9,21,0,0,0,0,0,2,2,2,2,2,2,2,26,2,19,27,3,3,3,9,0,0,6,0,25,28,748.txt
0,0,0,0,0,0,0,0,22,21,13,4,3,3,18,0,0,0,0,0,0,0,0,0,0,10,12,1,9,9,21,0,0,0,0,0,1,1,1,1,1,1,1,1,1,19,1,1,5,5,9,0,0,5,0,5,5,751.txt
0,18,11,30,2,0,0,0,2,5,3,3,4,4,4,9,9,4,10,10,16,6,17,5,9,11,3,1,10,11,12,11,21,17,15,30,1,1,1,1,1,26,1,1,1,8,1,1,5,5,27,21,30,22,7,5,5,755.txt
0,0,0,0,0,0,0,0,22,21,13,4,3,3,18,0,0,0,0,0,0,0,0,0,0,10,12,18,9,9,21,0,0,0,0,2,2,12,13,2,2,6,2,26,2,19,16,12,16,16,9,6,5,5,12,23,25,756.txt
0,0,0,0,0,0,0,0,26,21,13,4,3,3,18,0,0,0,0,0,0,0,0,0,0,10,12,1,9,9,0,0,0,0,0,0,1,1,1,1,1,1,1,1,1,19,1,1,5,5,9,1,1,1,1,5,5,760.txt
0,0,0,0,0,0,0,0,22,21,13,4,3,3,18,0,0,0,0,0,0,0,0,0,0,10,12,1,9,9,21,0,0,0,0,0,1,1,1,1,1,1,1,1,1,19,1,1,8,7,9,1,1,1,1,1,1,765.txt
0,0,9,0,0,0,0,0,22,21,13,4,3,3,18,5,0,12,13,0,0,13,9,9,10,10,12,1,9,9,0,0,0,0,0,0,1,1,1,1,1,1,1,1,1,19,1,1,8,7,9,13,4,7,0,1,1,766.txt
0,0,0,0,0,0,0,0,22,21,13,4,3,3,18,0,0,0,0,0,0,0,0,0,0,10,12,1,9,9,0,0,0,0,0,0,1,1,1,1,1,1,1,1,1,19,1,1,5,5,9,0,0,5,0,5,5,768.txt
0,0,0,0,0,0,0,0,22,21,13,4,3,3,18,0,0,0,0,0,0,0,0,0,0,10,12,0,9,9,22,0,0,0,0,0,6,2,2,6,0,27,0,6,6,19,22,20,23,3,9,0,0,0,18,25,28,771.txt
0,0,0,0,0,0,0,0,22,21,13,4,3,3,18,0,0,0,0,0,0,0,0,0,0,10,12,1,9,9,19,0,0,0,0,0,1,1,1,1,1,1,1,1,1,19,1,1,5,5,9,0,0,5,0,5,5,772.txt
0,0,0,0,0,0,0,0,22,21,13,4,3,3,18,0,0,0,0,0,0,0,0,0,0,10,12,1,9,9,18,0,0,0,0,0,1,1,1,1,1,1,1,1,1,19,1,1,5,5,11,1,1,1,1,5,5,773.txt
0,0,0,0,0,0,0,0,22,21,13,4,3,3,18,0,0,0,0,0,0,0,0,0,0,10,12,1,9,9,21,0,0,0,0,0,1,1,1,1,1,1,1,1,1,19,1,1,5,5,9,1,1,1,1,5,5,775.txt
0,0,0,0,0,0,0,0,22,21,13,4,3,3,18,0,0,0,0,0,0,0,0,0,0,10,12,18,9,9,21,0,0,0,0,0,6,28,24,6,0,0,0,6,6,19,14,18,21,14,9,0,0,26,12,0,0,777.txt
0,0,0,0,0,0,0,0,22,21,13,4,3,3,18,0,0,0,0,0,0,0,0,0,0,10,12,9,9,9,21,0,0,0,0,0,2,5,26,2,2,13,2,26,27,19,5,17,6,22,9,8,11,8,0,8,30,779.txt
0,0,0,0,0,0,0,0,22,21,13,4,3,3,18,0,0,0,0,0,0,0,0,0,0,10,12,1,9,9,0,0,0,0,0,0,1,1,1,1,1,1,1,1,1,19,1,1,5,5,9,1,1,1,1,5,5,781.txt
0,0,0,0,0,0,0,0,22,21,13,4,3,3,18,0,0,0,0,0,0,0,0,0,0,10,12,1,9,9,0,0,0,0,0,0,1,1,1,1,1,1,1,1,1,19,1,1,5,5,9,0,0,5,0,5,5,785.txt
0,0,0,0,0,0,0,0,22,21,13,4,3,3,18,0,0,0,0,0,0,0,0,0,0,10,12,1,9,9,0,0,0,0,0,0,1,1,1,1,1,1,1,1,1,19,1,1,5,5,9,1,1,1,1,5,5,787.txt
0,11,0,15,0,0,0,0,26,14,6,6,6,6,6,13,12,3,3,19,1,1,1,27,1,1,3,1,11,10,7,17,1,23,8,1,1,1,1,1,1,1,1,1,1,9,1,1,5,5,1,0,0,5,0,5,5,790.txt
0,0,0,0,0,0,0,0,22,21,13,4,3,3,18,0,0,0,0,0,0,0,0,0,0,10,12,0,9,9,21,0,0,0,0,0,2,2,2,2,2,1,2,26,2,19,22,20,23,3,9,19,0,5,18,25,28,792.txt
0,0,0,0,0,0,0,0,22,21,13,4,3,3,18,0,0,0,0,0,0,0,0,0,0,10,12,0,9,9,0,0,0,0,0,0,2,2,2,2,2,27,2,26,2,19,22,20,23,3,9,0,0,5,0,25,28,796.txt
0,0,0,0,0,0,0,0,22,21,13,4,3,3,18,0,0,0,0,0,0,0,0,0,0,10,12,1,9,9,0,0,0,0,0,0,1,1,1,1,1,1,1,1,1,19,1,1,5,5,9,19,0,5,0,5,5,800.txt
0,0,0,0,0,0,0,0,22,21,13,4,3,3,18,0,0,0,0,0,0,0,0,0,0,10,12,1,9,9,0,0,0,0,0,0,1,1,1,1,1,1,1,1,1,19,1,1,5,5,9,0,0,5,0,5,5,802.txt
0,0,0,0,0,23,2,16,9,21,0,18,0,0,0,0,0,0,0,0,0,0,0,0,0,10,12,11,9,9,17,0,0,20,21,3,2,12,14,2,2,6,2,26,2,7,16,12,15,16,9,9,11,10,7,23,15,806.txt
0,0,0,0,0,0,0,0,22,21,13,4,3,3,18,0,0,0,0,0,0,0,0,0,0,10,12,1,9,9,0,0,0,0,0,0,1,1,1,1,1,1,1,1,1,19,1,1,5,5,9,1,1,1,1,5,5,807.txt
0,0,0,0,0,0,0,0,22,21,20,4,3,3,18,0,0,0,0,0,0,0,0,0,0,10,12,1,9,9,0,0,0,0,0,0,1,1,1,1,1,1,1,1,1,0,1,1,5,5,9,1,1,1,1,5,5,810.txt
0,0,0,0,0,0,0,0,22,21,13,4,3,3,18,0,0,0,0,0,0,0,0,0,0,10,12,1,9,9,0,0,0,0,0,0,1,1,1,1,1,1,1,1,1,19,1,1,8,7,9,1,1,1,1,1,1,813.txt
18,19,25,15,20,0,0,0,20,5,3,3,4,4,4,22,26,10,7,24,1,1,1,28,1,27,3,1,26,13,14,28,1,26,12,24,1,1,1,1,1,24,1,1,1,11,1,1,5,5,16,12,30,13,27,5,5,816.txt
0,0,0,0,0,23,2,16,22,21,13,4,3,3,18,0,0,0,0,0,0,0,0,0,0,10,12,1,9,9,10,0,0,2,2,6,1,1,1,1,1,5,1,1,1,7,1,1,5,5,9,1,1,1,1,5,5,817.txt
0,0,0,0,0,0,0,0,22,21,13,4,3,3,18,0,0,0,0,0,0,0,0,0,0,10,12,1,9,9,21,0,0,0,0,0,1,1,1,1,1,1,1,1,1,19,1,1,5,5,9,8,11,8,0,5,5,818.txt
0,0,0,0,0,0,0,0,22,21,13,4,3,3,18,0,0,0,0,0,0,0,0,0,0,10,12,1,9,9,0,0,0,0,0,0,1,1,1,1,1,27,1,1,1,19,1,1,1,1,9,1,1,1,1,1,1,821.txt
0,0,0,0,0,0,0,0,22,21,0,18,0,0,0,0,0,0,0,0,0,0,0,0,0,10,12,0,9,9,0,0,0,0,0,0,2,5,4,2,2,4,2,26,2,19,4,4,6,6,9,0,0,5,18,6,6,824.txt
0,0,0,0,0,0,0,0,22,21,13,4,3,3,18,0,0,0,0,0,0,0,0,0,0,10,12,1,9,9,0,0,0,0,0,0,1,1,1,1,1,1,1,1,1,19,1,1,5,5,9,2,11,2,29,5,5,827.txt
20,11,1,15,28,0,0,0,1,6,6,6,6,6,6,30,1,3,14,20,1,1,1,27,1,1,7,11,11,10,15,17,1,1,13,12,2,5,4,2,2,10,2,26,2,9,13,11,6,4,8,8,11,8,0,4,4,831.txt
0,0,0,0,0,0,0,0,22,21,13,4,3,3,18,0,0,0,0,0,0,0,0,0,0,10,12,1,9,9,0,0,0,0,0,0,1,1,1,1,1,1,1,1,1,19,1,1,5,5,9,1,1,1,1,5,5,832.txt
0,0,0,0,0,0,0,0,22,21,13,4,3,3,18,0,0,0,0,0,0,0,0,0,0,10,12,1,9,9,21,0,0,0,0,0,1,1,1,1,1,1,1,1,1,19,1,1,12,12,9,0,0,5,0,7,7,834.txt
0,0,0,0,0,0,0,0,22,21,13,4,3,3,18,0,0,0,0,0,0,0,0,0,0,10,12,1,9,9,0,0,0,0,0,2,1,1,1,1,1,1,1,1,1,19,1,1,5,5,9,0,0,5,12,5,5,836.txt
0,0,0,0,0,0,0,0,22,21,13,4,3,3,18,0,0,0,0,0,0,0,0,0,0,10,12,1,9,9,21,0,0,0,0,0,1,1,1,1,1,1,1,1,1,19,1,1,5,5,9,19,0,6,0,5,5,839.txt
0,11,0,15,0,0,0,0,1,3,2,2,2,2,2,13,6,3,3,19,25,27,1,27,1,5,3,1,5,6,14,4,4,7,12,4,1,1,1,1,1,1,1,1,1,9,1,1,5,5,16,8,11,8,0,5,5,842.txt
0,0,0,0,0,0,0,0,22,21,13,4,3,3,18,0,0,0,0,0,0,0,0,0,0,10,12,1,9,9,0,0,0,0,0,0,1,1,1,1,1,1,1,1,1,19,1,1,5,5,9,1,1,1,1,5,5,847.txt
0,0,0,0,0,0,0,0,22,21,13,4,3,3,18,0,0,0,0,0,0,0,0,0,0,10,12,1,9,9,0,0,0,0,0,0,1,1,1,1,1,1,1,1,1,19,1,1,5,5,9,1,1,1,1,5,5,851.txt
0,0,0,0,12,23,2,16,3,4,13,4,3,3,18,2,2,2,22,7,2,30,2,2,2,2,2,9,2,2,0,3,3,0,0,0,2,2,2,2,2,2,2,26,2,19,27,3,3,3,2,8,11,8,0,25,28,852.txt
0,0,0,0,0,0,0,0,22,21,13,4,3,3,18,0,0,0,0,0,0,0,0,0,0,10,12,1,9,9,21,0,0,0,0,0,1,1,1,1,1,1,1,1,1,19,1,1,5,5,9,8,19,8,0,5,5,855.txt
0,0,0,0,0,0,0,0,22,21,13,4,3,3,18,0,0,0,0,0,0,0,0,0,0,10,12,0,9,9,19,0,0,0,0,2,2,12,18,2,2,6,2,26,2,19,16,12,15,16,9,0,0,5,2,23,25,857.txt
0,0,0,0,0,0,0,0,22,21,13,4,3,3,18,0,0,0,0,0,0,0,0,0,0,10,12,1,9,9,0,0,0,0,0,0,1,1,1,1,1,1,1,1,1,19,1,1,5,5,11,1,1,1,1,5,5,859.txt
0,0,0,0,0,0,0,0,22,21,13,4,3,3,18,0,0,0,0,0,0,0,0,0,0,10,12,1,9,9,0,0,0,0,0,0,1,1,1,1,1,1,1,1,1,19,1,1,5,5,9,1,1,1,1,5,5,861.txt
0,0,0,0,0,0,0,0,22,21,13,4,3,3,18,0,0,0,0,0,0,0,0,0,0,10,12,1,9,9,19,0,0,0,0,2,1,1,1,1,1,1,1,1,1,19,1,1,1,1,9,1,1,1,1,1,1,864.txt
0,0,0,0,0,0,0,0,22,21,13,4,3,3,18,0,0,0,0,0,0,0,0,0,0,10,12,0,9,9,21,0,0,0,0,0,2,5,4,2,2,4,2,26,2,19,4,4,6,6,9,0,0,0,0,6,24,866.txt
0,0,0,0,0,0,0,0,22,21,0,18,0,0,0,0,0,0,0,0,0,0,0,0,0,10,12,0,9,9,21,0,0,0,0,0,2,5,11,2,2,11,2,26,17,19,13,4,6,8,9,19,0,5,0,6,30,868.txt
0,0,0,0,0,23,2,16,22,21,0,18,0,0,0,0,0,0,0,0,0,0,0,0,0,10,12,0,9,9,0,0,0,0,0,0,6,8,9,6,0,12,0,6,6,19,14,0,15,14,9,0,0,7,0,20,17,870.txt
0,0,0,0,0,0,0,0,22,21,13,4,3,3,18,0,0,0,0,0,0,0,0,0,0,10,12,1,9,9,0,0,0,0,0,0,1,1,1,1,1,1,1,1,1,19,1,1,5,5,9,1,1,1,1,5,5,872.txt
0,0,0,0,0,0,0,0,22,21,13,4,3,3,18,0,0,0,0,0,0,0,0,0,0,10,12,0,9,9,0,0,0,0,0,0,14,5,4,17,5,4,5,5,9,19,4,4,6,4,9,0,0,5,18,4,4,874.txt
0,0,0,0,0,0,0,0,22,21,13,4,3,3,18,0,0,0,0,0,0,0,0,0,0,10,12,1,9,9,0,0,0,0,0,0,1,1,1,1,1,1,1,1,1,19,1,1,5,5,9,1,1,1,1,5,5,879.txt
0,0,0,0,0,0,0,0,22,21,13,4,3,3,18,0,0,0,0,0,0,0,0,0,0,10,12,1,9,9,0,0,0,0,0,0,1,1,1,1,1,1,1,1,1,19,1,1,5,5,9,1,1,1,1,5,5,882.txt
0,0,0,0,0,0,0,0,22,21,13,4,3,3,18,0,0,0,0,0,0,0,0,0,0,10,12,18,9,9,0,0,0,0,0,0,6,2,2,6,0,27,0,6,6,19,22,20,23,3,9,6,5,6,0,25,28,884.txt
0,0,0,0,0,0,0,0,22,21,13,4,3,3,18,0,0,0,0,0,0,0,0,0,0,10,12,1,9,9,0,0,0,0,0,0,1,1,1,1,1,1,1,1,1,19,1,1,5,5,9,1,1,1,1,5,5,885.txt
0,0,0,0,0,0,0,0,22,21,13,4,3,3,18,0,0,0,0,0,0,0,0,0,0,10,12,1,9,9,0,0,0,0,0,0,1,1,1,1,1,1,1,1,1,19,1,1,5,5,9,1,1,1,1,5,5,886.txt
0,0,0,0,0,0,0,0,22,21,13,4,3,3,18,0,0,0,0,0,0,0,0,0,0,10,12,1,9,9,0,0,0,0,0,0,1,1,1,1,1,1,1,1,1,19,1,1,5,5,9,0,0,5,0,5,5,889.txt
0,0,0,0,0,0,0,0,22,21,13,4,3,3,18,0,0,0,0,0,0,0,0,0,0,10,12,1,9,9,0,0,0,0,0,2,1,1,1,1,1,1,1,1,1,19,1,1,5,5,9,1,1,1,1,5,5,891.txt
0,0,0,0,0,0,0,0,22,21,13,4,3,3,18,0,0,0,0,0,0,0,0,0,0,10,12,1,9,9,0,0,0,0,0,0,1,1,1,1,1,1,1,1,1,19,1,1,5,5,9,0,0,5,3,5,5,893.txt
0,0,0,0,0,0,0,0,22,21,20,4,3,3,18,0,0,0,0,0,0,0,0,0,0,10,12,0,9,9,0,0,0,0,0,0,2,5,4,2,2,4,2,26,2,0,4,4,6,4,9,0,0,5,0,4,4,896.txt
0,11,0,15,0,0,0,0,22,5,3,3,4,4,4,13,6,3,7,19,1,1,1,27,1,5,7,0,5,6,7,9,1,7,8,1,2,5,4,2,2,4,2,26,2,9,4,4,6,4,1,0,0,5,0,4,4,900.txt
0,0,0,0,0,0,0,0,22,21,13,4,3,3,18,0,0,0,0,0,0,0,0,0,0,10,12,1,9,9,0,0,0,0,0,0,1,1,1,1,1,1,1,1,1,19,1,1,5,5,9,1,1,1,1,5,5,902.txt
18,29,11,21,2,8,18,6,2,5,3,3,4,4,4,9,9,4,9,10,16,3,17,5,9,11,13,16,10,11,11,16,30,29,24,11,29,15,29,12,1,26,1,1,1,8,6,8,9,21,5,8,15,8,11,22,11,905.txt
0,0,0,0,0,0,0,0,22,21,13,4,3,3,18,0,0,0,0,0,0,0,0,0,0,10,12,1,9,9,0,0,0,0,0,0,1,1,1,1,1,1,1,1,1,19,1,1,5,5,9,1,1,1,1,5,5,907.txt
0,0,0,0,0,0,0,0,22,21,13,4,3,3,18,0,0,0,0,0,0,0,0,0,0,10,12,1,9,9,0,0,0,0,0,0,1,1,1,1,1,1,1,1,1,19,1,1,5,5,9,1,1,1,1,5,5,909.txt
0,0,0,0,0,0,0,0,22,21,13,4,3,3,18,0,0,0,0,0,0,0,0,0,0,10,12,0,9,9,0,0,0,0,0,0,2,5,4,2,2,4,2,26,2,19,4,4,6,4,9,0,0,5,0,4,4,911.txt
0,0,0,0,0,0,0,0,22,21,13,4,3,3,18,0,0,0,0,0,0,0,0,0,0,10,12,1,9,9,0,0,0,0,0,0,1,1,1,1,1,4,1,1,1,19,1,1,5,5,11,1,1,1,1,5,5,914.txt
20,11,1,15,28,0,0,0,26,1,6,17,21,6,24,30,6,8,1,20,1,1,1,30,1,5,7,20,5,6,14,1,8,7,12,1,2,5,11,2,16,11,18,24,7,9,4,4,6,4,8,8,11,8,0,4,4,917.txt
0,11,0,15,0,0,0,0,1,3,2,2,2,2,2,13,6,3,3,19,1,1,1,27,1,5,3,1,3,3,3,4,4,3,3,4,1,1,1,1,1,1,1,1,1,5,1,1,5,5,1,1,1,1,1,5,5,922.txt
0,0,9,0,0,0,0,0,22,21,13,4,3,3,18,5,0,6,6,0,0,13,9,9,10,10,12,1,9,9,21,0,0,0,0,0,1,1,1,1,1,1,1,1,1,19,1,1,5,5,9,1,1,1,1,5,5,924.txt
0,0,0,0,0,0,0,0,22,21,13,4,3,3,18,0,0,0,0,0,0,0,0,0,0,10,12,1,9,9,0,0,0,0,0,0,1,1,1,1,1,1,1,1,1,19,1,1,5,5,9,0,0,5,0,5,5,925.txt
0,0,0,0,0,0,0,0,22,21,13,4,3,3,18,0,0,0,0,0,0,0,0,0,0,10,12,1,9,9,0,0,0,0,0,0,1,1,1,1,1,1,1,1,1,19,1,1,5,5,9,19,0,5,0,5,5,926.txt
0,0,0,3,0,0,0,0,1,21,0,18,0,0,0,0,0,0,0,0,6,5,6,26,6,5,7,0,11,10,7,1,10,7,8,1,2,2,2,2,2,27,2,26,2,15,22,20,23,3,9,0,0,5,0,25,28,928.txt
0,0,0,0,0,0,0,0,22,21,13,4,3,3,18,0,0,0,0,0,0,0,0,0,0,10,12,0,9,9,0,0,0,0,0,0,2,5,4,2,2,1,2,26,2,19,13,4,6,4,9,19,0,5,0,4,4,930.txt
0,0,0,0,0,0,0,0,22,21,13,4,3,3,18,0,0,0,0,0,0,0,0,0,0,10,12,1,9,9,0,0,0,0,0,0,1,1,1,1,1,1,1,1,1,19,1,1,5,5,9,20,0,5,0,5,5,932.txt
18,11,1,15,28,27,4,4,1,3,2,2,2,2,2,13,6,4,3,19,1,1,1,5,1,5,3,1,3,3,3,4,4,3,3,4,1,1,1,1,1,1,1,1,1,5,1,1,5,5,8,1,1,1,1,5,5,935.txt
0,0,0,0,0,0,0,0,22,21,0,18,0,0,0,0,0,0,0,0,0,0,0,0,0,10,12,0,9,9,21,0,0,0,0,0,2,5,4,2,2,4,2,26,2,19,4,4,6,6,9,19,0,21,2,6,6,940.txt
0,0,0,0,0,0,0,0,22,21,13,4,3,3,18,0,0,0,0,0,0,0,0,0,0,10,12,1,9,9,0,0,0,0,0,0,1,1,1,1,1,1,1,1,1,19,1,1,5,5,9,0,0,5,0,5,5,942.txt
29,11,1,15,28,0,0,28,17,6,18,17,21,21,24,29,13,20,15,1,7,15,7,28,25,20,22,11,11,10,29,8,29,11,30,29,3,28,24,3,3,7,18,3,7,9,23,22,27,29,27,29,26,28,21,17,19,944.txt
0,0,0,0,0,0,0,0,22,21,13,4,3,3,18,0,0,0,0,0,0,0,0,0,0,10,12,1,9,9,21,0,0,0,0,0,1,1,1,1,1,1,1,1,1,19,1,1,5,5,9,1,1,1,1,5,5,946.txt
0,0,0,0,0,0,0,0,22,21,13,4,3,3,18,0,0,0,0,0,0,0,0,0,0,10,12,1,9,9,0,0,0,0,0,0,1,1,1,1,1,1,1,1,1,19,1,1,5,5,9,0,0,5,0,5,5,949.txt
0,0,0,0,0,0,0,0,22,21,13,4,3,3,18,0,0,0,0,0,0,0,0,0,0,10,12,1,9,9,21,0,0,0,0,0,1,1,1,1,1,4,1,1,1,19,1,1,5,5,9,13,14,7,12,5,5,951.txt
0,0,0,0,0,0,0,0,22,21,13,4,3,3,18,0,0,0,0,0,0,0,0,0,0,10,12,0,9,9,0,0,0,0,0,0,2,5,4,2,2,4,2,26,2,19,4,4,6,4,9,19,0,5,18,4,4,954.txt
0,0,0,0,0,0,0,0,22,21,0,18,0,0,0,0,0,0,0,0,0,0,0,0,0,10,12,1,9,9,0,0,0,0,0,0,1,1,1,1,1,4,1,1,1,19,1,1,5,5,11,0,0,7,0,5,5,956.txt
0,0,0,15,0,0,0,0,22,21,13,4,3,3,18,0,0,0,0,0,1,1,1,27,1,1,3,1,3,3,3,4,4,3,3,4,1,1,1,1,1,1,1,1,1,5,1,1,5,5,9,1,1,1,1,5,5,959.txt
0,0,0,0,0,0,0,0,22,21,13,4,3,3,18,0,0,0,0,0,0,0,0,0,0,10,12,1,9,9,0,0,0,0,0,0,1,1,1,1,1,1,1,1,1,19,1,1,5,5,9,1,1,1,1,5,5,961.txt
0,0,0,0,0,0,0,0,22,21,13,4,3,3,18,0,0,0,0,0,0,0,0,0,0,10,12,1,9,9,0,0,0,0,0,0,1,1,1,1,1,1,1,1,1,19,1,1,5,5,9,1,1,1,1,5,5,962.txt
0,0,0,0,12,0,0,0,3,4,13,4,3,3,18,0,0,0,0,7,0,0,0,0,0,10,12,1,9,9,0,0,0,0,0,0,1,1,1,1,1,1,1,1,1,19,1,1,5,5,2,19,0,5,0,5,5,964.txt
0,0,0,0,0,0,0,0,22,21,13,4,3,3,18,0,0,0,0,0,0,0,0,0,0,10,12,1,9,9,0,0,0,0,0,0,1,1,1,1,1,1,1,1,1,19,1,1,5,5,9,8,11,8,18,5,5,966.txt
0,0,0,0,0,0,0,0,22,21,13,4,3,3,18,0,0,0,0,0,0,0,0,0,0,10,12,1,9,9,19,0,0,0,0,0,1,1,1,1,1,1,1,1,1,19,1,1,5,5,9,0,0,5,0,5,5,968.txt
0,0,0,0,0,0,0,0,22,21,13,4,3,3,18,0,0,0,0,0,0,0,0,0,0,10,12,1,9,9,0,0,0,0,0,0,1,1,1,1,1,1,1,1,1,19,1,1,5,5,9,1,1,1,1,5,5,970.txt
0,0,0,0,0,0,0,0,22,21,13,4,3,3,18,0,0,0,0,0,0,0,0,0,0,10,12,1,9,9,21,0,0,0,0,0,1,1,1,1,1,1,1,1,1,19,1,1,5,5,9,1,1,1,1,5,5,974.txt
0,0,0,0,0,0,0,0,22,21,13,4,3,3,18,0,0,0,0,0,0,0,0,0,0,10,12,1,9,9,0,0,0,0,0,0,1,1,1,1,1,1,1,1,1,19,1,1,5,5,9,1,1,1,1,5,5,975.txt
0,0,0,0,0,23,2,16,22,21,13,4,3,3,18,0,0,0,0,0,0,0,0,0,0,10,12,1,9,9,0,0,0,0,0,0,1,1,1,1,1,1,1,1,1,19,1,1,5,5,9,21,11,22,7,5,5,979.txt
0,0,0,0,22,26,11,12,22,21,13,4,3,3,18,0,0,0,0,13,0,0,0,0,0,10,12,1,9,9,10,20,24,8,10,6,1,1,1,1,1,13,1,1,1,12,1,1,1,1,3,8,15,8,19,10,10,981.txt
0,0,0,0,0,0,0,0,22,21,13,4,3,3,18,0,0,0,0,0,0,0,0,0,0,10,12,1,9,9,19,0,0,0,0,0,1,1,1,1,1,1,1,1,1,0,1,1,5,5,9,0,0,5,0,5,5,987.txt
0,0,0,0,0,0,0,0,22,21,13,4,3,3,18,0,0,0,0,0,0,0,0,0,0,10,12,1,9,9,18,0,0,0,0,0,1,1,1,1,1,1,1,1,1,19,1,1,1,1,9,22,0,6,0,10,10,989.txt
20,11,1,2,28,0,0,0,26,6,6,6,6,6,6,13,1,3,14,19,1,1,1,27,1,1,7,0,11,10,7,17,10,1,8,10,12,5,4,13,2,1,2,26,2,9,7,7,6,4,1,19,0,5,3,4,4,994.txt
0,0,0,0,0,0,0,0,22,21,13,4,3,3,18,0,0,0,0,0,0,0,0,0,0,10,12,1,9,9,0,0,0,0,0,0,1,1,1,1,1,1,1,1,1,19,1,1,5,5,9,1,1,1,1,5,5,996.txt
0,0,0,0,0,0,0,0,22,21,13,4,3,3,18,0,0,0,0,0,0,0,0,0,0,10,12,1,9,9,19,0,0,0,0,0,1,1,1,1,1,1,1,1,1,19,1,1,5,5,9,0,0,7,0,5,5,998.txt
0,0,0,0,0,0,0,0,22,21,13,4,3,3,18,0,0,0,0,0,0,0,0,0,0,10,12,1,9,9,19,0,0,0,0,0,1,1,1,1,1,1,1,1,1,19,1,1,5,5,9,1,1,1,1,5,5,1002.txt
0,0,0,0,0,0,0,0,22,21,13,4,3,3,18,0,0,0,0,0,0,0,0,0,0,10,12,1,9,9,0,0,0,0,0,0,1,1,1,1,1,1,1,1,1,19,1,1,5,5,11,1,1,1,1,5,5,1005.txt
0,0,0,0,0,0,0,0,22,21,13,4,3,3,18,0,0,0,0,0,0,0,0,0,0,10,12,1,9,9,0,0,0,0,0,0,1,1,1,1,1,1,1,1,1,19,1,1,5,5,9,1,1,1,1,5,5,1008.txt
0,0,0,0,0,0,0,0,22,21,13,4,3,3,18,0,0,0,0,0,0,0,0,0,0,10,12,1,9,9,21,0,0,0,0,0,1,1,1,1,1,1,1,1,1,19,1,1,5,5,9,8,11,8,0,5,5,1010.txt
0,0,0,0,0,0,0,0,22,21,13,4,3,3,18,0,0,0,0,0,0,0,0,0,0,10,12,1,9,9,0,0,0,0,0,0,1,1,1,1,1,1,1,1,1,19,1,1,5,5,9,1,1,1,1,5,5,1013.txt
0,0,0,0,0,0,0,0,22,21,13,4,3,3,18,0,0,0,0,0,0,0,0,0,0,10,12,1,9,9,21,0,0,0,0,0,1,1,1,1,1,1,1,1,1,19,1,1,5,5,9,19,0,5,0,5,5,1015.txt
0,0,0,0,0,0,0,0,22,21,13,4,3,3,18,0,0,0,0,0,0,0,0,0,0,10,12,1,9,9,0,0,0,0,0,0,1,1,1,1,1,1,1,1,1,19,1,1,5,5,9,1,1,1,1,5,5,1018.txt
20,19,15,15,2,16,18,6,2,5,3,3,4,4,4,9,9,1,7,10,16,14,17,14,17,12,15,11,10,11,15,17,1,29,13,24,15,23,15,18,23,24,22,14,10,8,18,28,19,18,5,29,3,28,7,26,27,1020.txt
0,0,0,0,0,0,0,0,22,21,13,4,3,3,18,0,0,0,0,0,0,0,0,0,0,10,12,11,9,9,21,0,0,0,0,0,6,4,11,6,0,5,0,6,6,19,4,11,25,22,9,21,15,22,7,6,30,1022.txt
0,0,0,0,0,0,0,0,22,21,13,4,3,3,18,0,0,0,0,0,0,0,0,0,0,10,12,1,9,9,0,0,0,0,0,0,1,1,1,1,1,1,1,1,1,19,1,1,5,5,9,19,0,5,0,5,5,1025.txt
0,0,0,0,0,0,0,0,22,21,13,4,3,3,18,0,0,0,0,0,0,0,0,0,0,10,12,1,9,9,0,0,0,0,0,2,1,1,1,1,1,1,1,1,1,19,1,1,5,5,9,12,30,13,24,5,5,1027.txt
0,0,9,0,0,23,2,16,22,21,0,18,0,0,0,5,29,12,13,0,0,13,9,9,10,10,12,11,9,9,10,0,0,2,2,0,6,4,25,6,0,5,0,6,6,7,9,17,25,11,9,8,10,8,18,6,30,1030.txt
0,0,0,0,0,0,0,0,22,21,13,4,3,3,18,0,0,0,0,0,0,0,0,0,0,10,12,1,9,9,0,0,0,0,0,0,1,1,1,1,1,1,1,1,1,19,1,1,5,5,9,1,1,1,1,5,5,1036.txt
0,0,0,0,0,0,0,0,22,21,13,4,3,3,18,0,0,0,0,0,0,0,0,0,0,10,12,1,9,9,0,0,0,0,0,0,1,1,1,1,1,1,1,1,1,19,1,1,5,5,9,1,1,1,1,5,5,1041.txt
0,0,0,0,0,0,0,0,22,21,13,4,3,3,18,0,0,0,0,0,0,0,0,0,0,10,12,9,9,9,0,0,0,0,0,0,2,5,11,2,2,10,2,26,7,19,4,11,6,4,9,2,22,2,0,4,4,1043.txt
0,0,0,0,0,0,0,0,22,21,13,4,3,3,18,0,0,0,0,0,0,0,0,0,0,10,12,1,9,9,0,0,0,0,0,0,1,1,1,1,1,1,1,1,1,19,1,1,5,5,9,1,1,1,1,5,5,1045.txt
0,0,0,0,0,0,0,0,22,21,13,4,3,3,18,0,0,0,0,0,0,0,0,0,0,10,12,1,9,9,21,0,0,0,0,0,1,1,1,1,1,1,1,1,1,19,1,1,5,5,9,1,1,1,1,5,5,1046.txt
0,0,0,0,0,23,2,16,22,21,0,18,0,0,0,0,0,0,0,0,0,0,0,0,0,10,12,20,9,9,21,0,0,0,0,5,3,2,2,3,8,27,8,27,27,19,22,20,23,3,9,8,15,8,0,25,28,1048.txt
0,0,0,0,0,0,0,0,22,21,13,4,3,3,18,0,0,0,0,0,0,0,0,0,0,10,12,1,9,9,0,0,0,0,0,0,1,1,1,1,1,1,1,1,1,19,1,1,5,5,9,8,30,8,0,5,5,1051.txt
0,0,0,0,0,0,0,0,22,21,13,4,3,3,18,0,0,0,0,0,0,0,0,0,0,10,12,1,9,9,0,0,0,0,0,0,1,1,1,1,1,1,1,1,1,19,1,1,5,5,9,1,1,1,1,5,5,1054.txt
0,0,0,0,0,0,0,0,22,21,13,4,3,8,18,0,0,0,0,18,0,0,0,0,0,10,12,1,9,9,21,0,0,0,0,0,1,1,1,1,1,1,1,1,1,19,1,1,5,5,9,8,11,8,0,5,5,1057.txt
0,0,0,0,0,0,0,0,22,21,13,4,3,3,18,0,0,0,0,0,0,0,0,0,0,10,12,1,9,9,0,0,0,0,0,0,1,1,1,1,1,1,1,1,1,19,1,1,5,5,9,0,0,7,0,5,5,1059.txt
0,0,0,0,0,0,0,0,22,21,13,4,3,3,18,0,0,0,0,0,0,0,0,0,0,10,12,1,9,9,0,0,0,0,0,0,1,1,1,1,1,1,1,1,1,19,1,1,5,5,9,1,1,1,1,5,5,1060.txt
0,0,0,0,0,0,0,0,22,21,13,4,3,3,18,0,0,0,0,0,0,0,0,0,0,10,12,1,9,9,0,0,0,0,0,0,1,1,1,1,1,1,1,1,1,19,1,1,5,5,9,8,15,8,0,5,5,1064.txt
0,0,0,0,0,0,0,0,22,21,13,4,3,3,18,0,0,0,0,0,0,0,0,0,0,10,12,1,9,9,0,0,0,0,0,0,1,1,1,1,1,1,1,1,1,19,1,1,5,5,9,1,1,1,1,5,5,1069.txt
0,0,0,0,0,0,0,0,22,21,13,4,3,3,18,0,0,0,0,0,0,0,0,0,0,10,12,1,9,9,0,0,0,0,0,0,1,1,1,1,1,1,1,1,1,19,1,1,1,1,9,1,1,1,1,1,1,1071.txt
0,0,0,0,0,0,0,0,22,21,13,4,3,3,18,0,0,0,0,0,0,0,0,0,0,10,12,1,9,9,0,0,0,0,0,0,1,1,1,1,1,1,1,1,1,19,1,1,5,5,9,1,1,1,1,5,5,1073.txt
0,0,9,0,0,0,0,0,22,21,0,18,0,0,0,5,29,12,13,0,0,13,9,9,10,10,12,24,9,9,21,0,0,0,0,0,6,2,2,6,0,27,0,6,6,19,22,20,23,3,9,8,15,8,19,25,28,1075.txt
0,0,0,0,0,0,0,0,22,21,13,4,3,3,18,0,0,0,0,0,0,0,0,0,0,10,12,1,9,9,0,0,0,0,0,0,1,1,1,1,1,1,1,1,1,19,1,1,5,5,9,1,1,1,1,5,5,1076.txt
0,0,0,0,0,0,0,0,22,21,13,4,3,3,18,0,0,0,0,0,0,0,0,0,0,10,12,1,9,9,0,0,0,0,0,0,1,1,1,1,1,1,1,1,1,19,1,1,5,5,9,0,0,5,0,5,5,1078.txt
0,0,0,0,0,0,0,0,22,21,13,4,3,3,18,0,0,0,0,0,0,0,0,0,0,10,12,1,9,9,0,0,0,0,0,0,1,1,1,1,1,1,1,1,1,19,1,1,5,5,9,1,1,1,1,5,5,1080.txt
0,0,0,0,0,0,0,0,22,21,13,4,3,3,18,0,0,0,0,0,0,0,0,0,0,10,12,1,9,9,0,0,0,0,0,0,1,1,1,1,1,1,1,1,1,19,1,1,1,1,9,1,1,1,1,1,1,1082.txt
0,0,0,0,0,0,0,0,22,21,13,4,3,3,18,0,0,0,0,0,0,0,0,0,0,10,12,1,9,9,0,0,0,0,0,0,1,1,1,1,1,1,1,1,1,19,1,1,1,1,9,1,1,1,1,1,1,1084.txt
0,0,0,0,0,0,0,0,22,21,13,4,3,3,18,0,0,0,0,0,0,0,0,0,0,10,12,1,9,9,0,0,0,0,0,2,1,1,1,1,1,1,1,1,1,19,1,1,5,5,9,1,1,1,1,5,5,1086.txt
0,0,0,0,0,0,0,0,22,21,0,18,0,0,0,0,29,0,0,0,0,0,0,0,0,10,12,1,9,9,0,0,0,0,0,0,1,1,1,1,1,5,1,1,1,18,1,1,1,1,9,1,1,1,1,1,1,1088.txt
18,11,0,15,0,0,0,0,1,3,2,2,2,2,2,13,12,3,3,19,1,1,1,27,1,1,3,1,3,3,3,4,4,3,3,4,1,1,1,1,1,1,1,1,1,5,1,1,5,5,8,1,1,1,1,5,5,1090.txt
0,0,0,0,0,0,0,0,22,21,13,4,3,3,18,0,0,0,0,0,0,0,0,0,0,10,12,0,9,9,0,0,0,0,0,0,2,12,14,2,2,6,2,26,2,19,18,12,15,18,9,0,0,5,18,23,25,1093.txt
0,0,0,0,0,0,0,0,22,21,13,4,3,3,18,0,0,0,0,0,0,0,0,0,0,10,12,1,9,9,0,0,0,0,0,0,1,1,1,1,1,1,1,1,1,19,1,1,5,5,9,1,1,1,1,5,5,1094.txt
0,0,0,0,0,0,0,0,22,21,13,4,3,3,18,0,0,0,0,0,0,0,0,0,0,10,12,9,9,9,21,0,0,0,0,0,2,2,2,2,2,27,2,26,7,19,22,20,23,3,9,10,11,11,17,25,28,1096.txt
0,0,0,2,0,0,0,0,22,21,13,4,3,3,18,0,0,0,0,0,25,27,1,27,1,1,3,1,3,3,3,4,4,3,3,4,1,1,1,1,1,1,1,1,1,5,1,1,5,5,10,0,0,5,3,5,5,1101.txt
0,0,0,0,0,0,0,0,22,21,13,4,3,3,18,0,0,0,0,0,0,0,0,0,0,10,12,1,9,9,0,0,0,0,0,0,1,1,1,1,1,1,1,1,1,19,1,1,5,5,9,1,1,1,1,5,5,1105.txt
0,0,0,0,0,0,0,0,22,21,13,4,3,3,18,0,0,0,0,0,0,0,0,0,0,10,12,1,9,9,21,0,0,0,0,0,1,1,1,1,1,1,1,1,1,19,1,1,8,7,9,1,1,1,1,1,1,1106.txt
0,29,0,15,0,8,18,6,2,5,3,3,4,4,4,9,9,1,10,10,1,1,1,14,1,12,3,1,10,11,12,11,1,29,15,24,1,1,1,1,1,2,1,1,1,8,1,1,5,5,8,8,19,8,18,5,5,1108.txt
0,0,0,0,0,0,0,0,22,21,13,4,3,3,18,0,0,0,0,0,0,0,0,0,0,10,12,1,9,9,0,0,0,0,0,2,1,1,1,1,1,1,1,1,1,19,1,1,5,5,10,1,1,1,1,5,5,1109.txt
0,0,0,0,0,0,0,0,22,21,13,4,3,3,18,0,0,0,0,0,0,0,0,0,0,10,12,1,9,9,0,0,0,0,0,0,1,1,1,1,1,1,1,1,1,19,1,1,5,5,9,1,1,1,1,5,5,1114.txt
0,0,0,0,12,23,2,16,3,4,13,4,3,3,18,2,2,2,22,7,2,30,2,2,2,2,2,9,13,12,0,3,3,0,0,0,2,9,11,2,2,5,2,26,7,19,4,11,7,4,2,2,11,2,0,4,4,1117.txt
0,0,0,0,0,0,0,0,22,21,13,4,3,3,18,0,0,0,0,0,0,0,0,0,0,10,12,1,9,9,0,0,0,0,0,0,1,1,1,1,1,1,1,1,1,19,1,1,8,7,9,1,1,1,1,1,1,1118.txt
0,0,0,0,0,0,0,0,22,21,13,4,3,3,18,0,0,0,0,0,0,0,0,0,0,10,12,1,9,9,0,0,0,0,0,0,1,1,1,1,1,1,1,1,1,19,1,1,5,5,9,0,0,5,12,5,5,1121.txt
0,0,0,0,0,0,0,0,22,21,0,18,0,0,0,0,0,0,0,0,0,0,0,0,0,10,12,0,9,9,0,0,0,0,0,0,2,5,4,2,2,4,2,26,2,19,4,4,6,4,9,0,0,5,3,4,4,1122.txt
0,0,0,0,0,0,0,0,22,21,13,4,3,3,18,0,0,0,0,0,0,0,0,0,0,10,12,1,9,9,0,0,0,0,0,0,1,1,1,1,1,1,1,1,1,19,1,1,1,1,9,1,1,1,1,1,1,1124.txt
0,0,0,0,0,0,0,0,22,21,13,4,3,3,18,0,0,0,0,0,0,0,0,0,0,10,12,1,9,9,21,0,0,0,0,0,1,1,1,1,1,1,1,1,1,19,1,1,5,5,9,1,1,1,1,5,5,1126.txt
0,0,0,0,0,4,3,21,22,21,13,4,3,3,18,0,0,0,0,0,0,0,0,0,0,10,12,1,9,9,0,0,0,0,0,26,1,1,1,1,1,12,1,1,1,19,1,1,8,7,9,11,10,12,7,1,1,1128.txt
0,0,0,0,0,0,0,0,22,21,13,4,3,3,18,0,0,0,0,0,0,0,0,0,0,10,12,1,9,9,0,0,0,0,0,0,1,1,1,1,1,1,1,1,1,19,1,1,5,5,9,1,1,1,1,5,5,1130.txt
0,0,0,0,0,0,0,0,22,21,13,4,3,3,18,0,0,0,0,0,0,0,0,0,0,10,12,1,9,9,21,0,0,0,0,0,1,1,1,1,1,1,1,1,1,19,1,1,5,5,9,0,0,20,0,5,5,1135.txt
0,0,0,0,0,0,0,0,22,21,13,4,3,3,18,0,0,0,0,0,0,0,0,0,0,10,12,1,9,9,21,0,0,0,0,0,1,1,1,1,1,4,1,1,1,19,1,1,5,5,9,0,0,7,0,5,5,1136.txt
0,0,0,0,0,0,0,0,22,21,13,4,3,3,18,0,0,0,0,0,0,0,0,0,0,10,12,0,9,9,0,0,0,0,0,2,6,0,18,6,10,24,9,6,6,19,18,23,15,18,9,0,0,5,12,0,0,1137.txt
0,0,0,0,0,0,0,0,22,21,13,4,3,3,18,0,0,0,0,0,0,0,0,0,0,10,12,1,9,9,0,0,0,0,0,0,1,1,1,1,1,1,1,1,1,19,1,1,5,5,9,0,0,5,0,5,5,1139.txt
0,0,0,15,0,0,0,0,1,21,13,4,3,3,18,0,0,0,0,0,1,1,1,28,1,5,7,7,10,13,13,9,10,7,12,10,2,5,4,2,2,4,2,26,7,8,13,4,6,4,9,10,15,11,18,4,4,1141.txt
0,0,0,0,0,0,0,0,22,21,13,4,3,3,18,0,0,0,0,0,0,0,0,0,0,10,12,1,9,9,21,0,0,0,0,0,1,1,1,1,1,24,1,1,1,19,1,1,5,5,9,16,30,18,7,5,5,1143.txt
0,0,0,0,0,0,0,0,22,21,13,4,3,3,18,0,0,0,0,0,0,0,0,0,0,10,12,1,9,9,21,0,0,0,0,0,1,1,1,1,1,1,1,1,1,19,1,1,5,5,9,1,1,1,1,5,5,1147.txt
0,0,0,0,0,0,0,0,22,21,13,4,3,3,18,0,0,0,0,0,0,0,0,0,0,10,12,1,9,9,0,0,0,0,0,0,1,1,1,1,1,1,1,1,1,19,1,1,5,5,9,1,1,1,1,5,5,1149.txt
0,0,0,0,0,0,0,0,22,21,13,4,3,3,18,0,0,0,0,0,0,0,0,0,0,10,12,11,9,9,21,0,0,0,0,2,6,25,19,6,0,21,0,6,6,19,23,28,21,24,9,8,11,8,0,19,23,1151.txt
0,0,0,0,0,0,0,0,22,21,13,4,3,3,18,0,0,0,0,0,0,0,0,0,0,10,12,1,9,9,0,0,0,0,0,0,1,1,1,1,1,1,1,1,1,19,1,1,5,5,9,1,1,1,1,5,5,1152.txt
0,0,0,0,0,0,0,0,22,21,13,4,3,3,18,0,0,0,0,0,0,0,0,0,0,10,12,1,9,9,0,0,0,0,0,0,1,1,1,1,1,1,1,1,1,19,1,1,5,5,9,1,1,1,1,5,5,1156.txt
0,0,0,0,0,0,0,0,22,21,13,4,3,3,18,0,0,0,0,0,0,0,0,0,0,10,12,1,9,9,21,0,0,0,0,0,1,1,1,1,1,1,1,1,1,19,1,1,5,5,9,1,1,1,1,5,5,1158.txt
0,0,0,0,0,0,0,0,22,21,13,4,3,3,18,0,0,0,0,0,0,0,0,0,0,10,12,1,9,9,0,0,0,0,0,0,1,1,1,1,1,1,1,1,1,19,1,1,5,5,9,1,1,1,1,5,5,1161.txt
0,0,0,0,0,0,0,0,22,21,13,4,3,3,18,0,0,0,0,0,0,0,0,0,0,10,12,1,9,9,0,0,0,0,0,0,1,1,1,1,1,1,1,1,1,19,1,1,5,5,9,1,1,1,1,5,5,1166.txt
0,0,0,0,0,0,0,0,22,21,13,4,3,3,18,0,0,0,0,0,0,0,0,0,0,10,12,1,9,9,0,0,0,0,0,0,1,1,1,1,1,1,1,1,1,19,1,1,5,5,9,19,0,5,0,5,5,1168.txt
29,11,1,15,28,23,29,13,12,22,3,3,4,4,4,30,6,4,7,20,18,20,1,5,1,5,23,11,5,6,29,8,8,7,7,1,23,22,14,21,22,12,25,17,20,9,23,26,27,28,7,28,11,28,9,24,23,1169.txt
0,0,0,0,12,23,2,16,5,9,25,23,5,25,22,4,4,5,4,7,4,4,2,2,4,2,2,10,2,2,10,3,3,21,22,6,12,5,11,3,3,10,3,3,27,7,25,7,6,8,3,2,11,2,0,8,30,1171.txt
0,0,0,0,0,0,0,0,22,21,13,4,3,3,18,0,0,0,0,0,0,0,0,0,0,10,12,1,9,9,0,0,0,0,0,0,1,1,1,1,1,1,1,1,1,19,1,1,8,7,11,20,0,6,29,1,1,1175.txt
0,0,0,0,0,0,0,0,22,21,13,4,3,3,18,0,0,0,0,0,0,0,0,0,0,10,12,1,9,9,21,0,0,0,0,0,1,1,1,1,1,1,1,1,1,19,1,1,5,5,9,0,0,5,0,5,5,1177.txt
18,18,0,15,0,0,0,0,7,3,2,2,2,2,2,6,5,4,3,6,1,1,1,5,1,11,3,1,3,3,3,4,4,3,3,4,1,1,1,1,1,1,1,1,1,5,1,1,5,5,16,1,1,1,1,5,5,1179.txt
0,0,0,0,0,0,0,0,22,21,13,4,3,3,18,0,0,0,0,0,0,0,0,0,0,10,12,1,9,9,0,0,0,0,0,0,1,1,1,1,1,5,1,1,1,19,1,1,1,1,9,1,1,1,1,1,1,1183.txt
0,0,0,0,0,0,0,0,22,21,13,4,3,3,18,0,0,0,0,0,0,0,0,0,0,10,12,0,9,9,0,0,0,0,0,0,2,5,4,2,2,1,2,26,2,19,4,4,6,4,9,0,0,5,0,4,4,1184.txt
0,0,0,0,0,0,0,0,1,21,13,4,3,3,18,0,0,0,0,0,0,0,0,0,0,10,12,1,9,9,0,0,0,0,0,0,1,1,1,1,1,1,1,1,1,19,1,1,5,5,9,1,1,1,1,5,5,1190.txt
0,11,1,15,28,0,0,0,1,5,3,3,4,4,4,13,6,3,9,19,1,1,1,27,1,5,7,0,5,6,14,9,1,7,12,12,2,12,18,2,2,6,2,26,3,9,18,12,15,18,1,19,0,5,18,23,15,1192.txt
0,0,0,0,0,0,0,0,22,21,13,4,3,3,18,0,0,0,0,0,0,0,0,0,0,10,12,1,9,9,0,0,0,0,0,0,1,1,1,1,1,1,1,1,1,19,1,1,5,5,9,1,1,1,1,5,5,1194.txt
0,0,0,0,0,0,0,0,22,21,13,4,3,3,18,0,0,0,0,0,0,0,0,0,0,10,12,12,9,9,0,0,0,0,0,0,2,5,4,2,2,5,2,26,2,19,4,4,6,22,9,8,11,8,0,6,24,1196.txt
0,0,0,0,0,0,0,0,22,21,13,4,3,3,18,0,0,0,0,0,0,0,0,0,0,10,12,0,9,9,21,0,0,0,0,0,2,2,2,2,2,27,2,26,2,19,22,20,23,3,9,19,0,5,12,25,28,1197.txt
0,0,0,0,0,0,0,0,22,21,0,18,0,0,0,0,0,0,0,0,0,0,0,0,0,10,12,1,9,9,0,0,0,0,0,2,1,1,1,1,1,5,1,1,1,19,1,1,5,5,9,8,10,8,0,5,5,1199.txt
0,0,0,0,0,0,0,0,22,21,13,4,3,3,18,0,0,0,0,0,0,0,0,0,0,10,12,1,9,9,21,0,0,0,0,0,1,1,1,1,1,24,1,1,1,19,1,1,1,1,9,15,13,17,5,10,10,1201.txt
0,0,0,0,0,0,0,0,22,21,13,4,3,3,18,0,0,0,0,0,0,0,0,0,0,10,12,1,9,9,0,0,0,0,0,0,1,1,1,1,1,1,1,1,1,19,1,1,5,5,9,10,11,11,7,5,5,1203.txt
0,0,0,0,0,0,0,0,22,21,0,18,0,0,0,0,0,0,0,0,0,0,0,0,0,10,12,1,9,9,0,0,0,0,0,0,1,1,1,1,1,4,1,1,1,19,1,1,5,5,9,19,0,6,0,5,5,1205.txt
18,18,9,18,0,27,4,4,23,3,2,2,2,2,2,6,5,4,3,6,5,6,5,5,9,11,13,16,16,15,24,16,21,17,25,15,29,15,29,4,1,12,1,1,1,25,6,8,9,21,7,11,10,12,7,22,29,1207.txt
0,0,0,0,0,0,0,0,22,21,13,4,3,3,18,0,0,0,0,0,0,0,0,0,0,10,12,1,9,9,0,0,0,0,0,0,1,1,1,1,1,1,1,1,1,19,1,1,5,5,9,1,1,1,1,5,5,1211.txt
0,0,0,0,0,0,0,0,22,21,13,4,3,3,18,0,0,0,0,0,0,0,0,0,0,10,12,1,9,9,0,0,0,0,0,0,1,1,1,1,1,1,1,1,1,19,1,1,5,5,11,1,1,1,1,5,5,1214.txt
0,0,0,0,0,0,0,0,22,21,13,4,3,3,18,0,0,0,0,0,0,0,0,0,0,10,12,1,9,9,0,0,0,0,0,0,1,1,1,1,1,1,1,1,1,19,1,1,5,5,11,1,1,1,1,5,5,1216.txt
0,0,0,0,0,0,0,0,22,21,13,4,3,3,18,0,0,0,0,0,0,0,0,0,0,10,12,0,9,9,0,0,0,0,0,0,2,5,4,2,2,4,2,26,2,19,4,4,6,6,9,0,0,5,0,6,8,1217.txt
0,0,0,0,0,0,0,0,22,21,13,4,3,3,18,0,0,0,0,0,0,0,0,0,0,10,12,1,9,9,21,0,0,0,0,0,1,1,1,1,1,1,1,1,1,19,1,1,5,5,9,1,1,1,1,5,5,1219.txt
0,0,0,0,0,0,0,0,22,21,13,26,25,27,18,0,0,0,0,0,0,0,0,0,0,10,12,1,9,9,0,0,0,0,0,2,1,1,1,1,1,1,1,1,1,19,1,1,5,5,9,23,14,5,0,5,5,1221.txt
20,29,15,3,20,23,14,10,20,5,3,3,4,4,4,3,26,10,7,3,16,5,17,26,29,27,15,18,26,25,7,17,1,15,8,24,15,18,15,18,15,17,17,17,10,15,18,18,16,18,1,0,0,6,12,26,27,1225.txt
0,0,0,0,0,0,0,0,22,21,13,4,3,3,18,0,0,0,0,0,0,0,0,0,0,10,12,1,9,9,0,0,0,0,0,0,1,1,1,1,1,26,1,1,1,19,1,1,5,5,11,1,1,1,1,5,5,1228.txt
0,0,0,0,0,0,0,0,22,21,13,4,3,3,18,0,0,0,0,0,0,0,0,0,0,10,12,1,9,9,0,0,0,0,0,0,1,1,1,1,1,27,1,1,1,19,1,1,5,5,9,8,15,8,0,5,5,1230.txt
0,0,0,0,0,0,0,0,22,21,13,4,3,3,18,0,0,0,0,0,0,0,0,0,0,10,12,1,9,9,0,0,0,0,0,0,1,1,1,1,1,1,1,1,1,19,1,1,5,5,9,1,1,1,1,5,5,1234.txt
0,0,0,0,0,0,0,0,22,21,13,4,3,3,18,0,0,0,0,0,0,0,0,0,0,10,12,1,9,9,0,0,0,0,0,0,1,1,1,1,1,1,1,1,1,19,1,1,5,5,9,1,1,1,1,5,5,1237.txt
0,11,0,2,0,0,0,0,26,3,2,2,2,2,2,13,12,3,3,19,1,1,1,27,1,1,3,1,3,3,3,4,4,3,3,4,1,1,1,1,1,1,1,1,1,5,1,1,5,5,1,1,1,1,1,5,5,1239.txt
18,11,1,21,28,16,10,14,1,18,21,29,29,16,9,30,6,1,15,20,1,1,18,22,14,5,13,16,5,6,11,16,20,7,25,30,29,15,29,12,1,21,1,1,1,24,6,8,9,21,5,8,23,8,11,22,11,1241.txt
0,0,0,0,0,0,0,0,22,21,13,4,3,3,18,0,0,0,0,0,0,0,0,0,0,10,12,1,9,9,0,0,0,0,0,2,1,1,1,1,1,1,1,1,1,19,1,1,5,5,9,28,11,28,24,5,5,1243.txt
18,11,1,15,28,0,0,0,1,5,3,3,4,4,4,13,6,3,7,19,6,5,6,27,6,5,3,1,5,6,7,17,16,7,8,1,1,1,1,1,1,0,1,1,1,9,1,1,5,5,1,0,0,5,2,5,5,1245.txt
0,0,0,15,0,0,0,0,22,21,13,4,3,3,18,0,0,0,0,0,1,1,1,27,1,5,3,1,3,3,3,4,4,3,3,4,1,1,1,1,1,1,1,1,1,5,1,1,5,5,9,1,1,1,1,5,5,1249.txt
0,0,0,0,0,0,0,0,22,21,13,4,3,3,18,0,0,0,0,0,0,0,0,0,0,10,12,1,9,9,0,0,0,0,0,0,1,1,1,1,1,1,1,1,1,19,1,1,5,5,9,1,1,1,1,5,5,1251.txt
0,29,0,24,12,0,0,0,3,26,22,8,29,22,9,9,9,1,15,10,3,14,27,14,9,12,3,1,10,11,12,11,11,26,15,24,1,1,1,1,1,27,1,1,1,8,11,1,5,5,5,2,20,2,18,5,5,1254.txt
0,0,0,1,0,0,0,0,22,21,0,18,0,0,0,0,0,0,0,0,6,5,6,26,6,5,7,0,5,6,7,9,10,7,8,1,2,12,14,2,2,6,2,26,2,9,18,12,15,18,9,0,0,5,12,23,25,1255.txt
0,0,9,0,0,0,0,0,22,21,0,18,0,0,0,12,29,6,6,0,0,13,10,10,11,10,12,7,9,9,19,0,0,0,0,5,6,0,0,6,0,0,0,6,6,18,19,0,29,19,9,3,7,3,5,0,18,1267.txt
0,11,1,15,28,0,0,0,1,5,3,3,4,4,4,30,6,3,9,20,1,1,1,27,1,5,7,0,5,6,7,17,1,7,8,10,2,12,13,2,2,6,2,26,2,11,0,12,29,0,1,19,0,5,12,23,25,1271.txt
4,19,15,21,20,0,0,0,20,1,22,8,8,16,20,19,30,1,15,28,6,3,6,1,6,21,26,6,22,21,1,1,19,28,1,9,23,0,14,21,23,0,12,18,22,23,23,0,16,15,16,9,19,10,5,13,14,1274.txt
0,0,9,0,0,0,0,0,22,21,0,18,0,0,0,5,0,6,6,0,0,13,9,9,10,10,12,4,9,9,21,0,0,0,0,0,6,4,5,6,0,4,0,6,6,19,5,17,4,6,9,0,0,26,20,6,9,1276.txt
0,29,11,15,2,0,0,0,2,3,2,2,2,2,2,9,9,1,3,10,1,1,1,8,1,12,3,1,10,11,12,17,1,15,15,24,1,1,1,1,1,1,1,1,1,8,1,1,5,5,5,26,19,3,17,5,5,1278.txt
0,0,0,0,0,0,0,0,22,21,13,4,3,3,18,0,0,0,0,0,0,0,0,0,0,10,12,1,9,9,0,0,0,0,0,0,1,1,1,1,1,1,1,1,1,19,1,1,5,5,9,1,1,1,1,5,5,1280.txt
18,11,1,15,28,0,0,0,1,5,3,3,4,4,4,13,6,3,3,19,1,1,1,27,1,5,3,1,5,6,7,17,16,7,8,1,1,1,1,1,1,1,1,1,1,9,1,1,5,5,17,0,0,5,0,5,5,1283.txt
9,19,25,3,2,4,3,21,2,1,22,6,6,23,6,9,9,1,1,10,16,15,17,28,17,21,15,11,22,21,14,1,8,28,12,30,14,24,0,29,5,17,5,5,10,8,18,28,19,18,7,9,15,10,7,18,27,1285.txt
0,0,0,0,0,0,0,0,22,21,13,4,3,3,18,0,0,0,0,0,0,0,0,0,0,10,12,1,9,9,0,0,0,0,0,0,1,1,1,1,1,1,1,1,1,19,1,1,5,5,9,0,0,5,2,5,5,1287.txt
0,0,9,0,0,23,2,16,22,21,13,4,3,3,18,5,29,12,13,0,0,13,9,9,10,10,12,4,9,9,21,0,0,0,0,0,6,4,25,6,0,13,0,6,6,18,9,17,10,6,9,22,0,26,0,6,30,1288.txt
20,19,15,15,2,16,19,26,2,5,3,3,4,4,4,9,9,1,7,10,16,14,17,26,17,12,15,18,10,11,7,17,11,15,8,22,15,25,15,18,15,21,17,17,10,8,18,28,19,18,5,6,5,20,12,18,27,1290.txt
18,11,1,15,28,16,18,6,1,5,3,3,4,4,4,13,6,3,9,19,16,14,17,27,18,5,13,16,5,6,25,16,20,7,16,12,29,15,29,4,1,1,1,1,1,9,6,8,9,21,7,29,30,28,7,22,29,1292.txt
0,0,0,0,0,0,0,0,22,21,13,4,3,3,18,0,0,0,0,0,0,0,0,0,0,10,12,1,9,9,0,0,0,0,0,0,1,1,1,1,1,1,1,1,1,19,1,1,5,5,9,1,1,1,1,5,5,1295.txt
0,19,0,15,0,0,0,0,20,5,3,3,4,4,4,10,3,1,9,28,8,22,1,15,1,27,26,0,26,13,7,17,16,27,8,10,24,5,4,21,12,4,12,25,9,11,4,4,6,4,1,0,0,5,0,4,4,1297.txt
0,0,0,0,0,0,0,0,22,21,13,4,3,3,18,0,0,0,0,0,0,0,0,0,0,10,12,11,9,9,0,0,0,0,0,0,3,9,11,3,3,1,18,3,7,19,13,11,11,8,9,10,11,11,7,6,30,1300.txt
29,11,1,15,28,8,12,9,1,10,8,15,16,6,16,30,1,3,14,20,8,7,8,3,8,1,30,2,11,10,6,8,22,1,7,12,2,5,4,2,3,4,27,3,2,9,13,4,6,4,29,8,15,8,11,4,4,1302.txt
0,0,0,0,0,0,0,0,22,21,13,4,3,3,18,0,0,0,0,0,0,0,0,0,0,10,12,1,9,9,19,0,0,0,0,0,1,1,1,1,1,1,1,1,1,19,1,1,5,5,9,1,1,1,1,5,5,1303.txt
0,0,0,0,0,0,0,0,22,21,20,4,3,3,18,0,0,0,0,0,0,0,0,0,0,10,12,4,9,9,21,0,0,0,0,0,6,5,4,6,0,4,0,6,6,0,4,4,6,6,9,0,0,0,0,6,6,1305.txt
0,0,0,0,0,0,0,0,22,21,13,4,3,3,18,0,0,0,0,0,0,0,0,0,0,10,12,1,9,9,21,0,0,0,0,0,1,1,1,1,1,1,1,1,1,19,1,1,5,5,9,8,15,8,0,5,5,1307.txt
0,0,0,0,0,0,0,0,22,21,13,4,3,3,18,0,0,0,0,0,0,0,0,0,0,10,12,0,9,9,0,0,0,0,0,0,6,5,4,6,0,4,0,6,6,19,4,4,6,6,9,19,0,6,0,6,9,1309.txt
0,0,0,0,0,0,0,0,22,21,13,4,3,3,18,0,0,0,0,0,0,0,0,0,0,10,12,1,9,9,0,0,0,0,0,0,1,1,1,1,1,1,1,1,1,19,1,1,5,5,9,1,1,1,1,5,5,1311.txt
0,0,0,0,0,0,0,0,22,21,13,4,3,3,18,0,0,0,0,0,0,0,0,0,0,10,12,1,9,9,0,0,0,0,0,0,1,1,1,1,1,1,1,1,1,19,1,1,5,5,9,1,1,1,1,5,5,1314.txt
0,0,0,0,0,0,0,0,22,21,13,4,3,3,18,0,0,0,0,0,0,0,0,0,0,10,12,1,9,9,21,0,0,0,0,0,1,1,1,1,1,1,1,1,1,19,1,1,8,7,9,1,1,1,1,1,1,1315.txt
0,0,0,0,0,0,0,0,22,21,13,4,3,3,18,0,0,0,0,0,0,0,0,0,0,10,12,1,9,9,0,0,0,0,0,0,1,1,1,1,1,1,1,1,1,19,1,1,5,5,9,0,0,5,0,5,5,1317.txt
0,0,0,0,0,0,0,0,22,21,13,4,3,3,18,0,0,0,0,0,0,0,0,0,0,10,12,1,9,9,21,0,0,0,0,0,1,1,1,1,1,1,1,1,1,19,1,1,12,12,9,19,0,5,0,7,7,1318.txt
0,0,0,0,0,0,0,0,22,21,13,4,3,3,18,0,0,0,0,0,0,0,0,0,0,10,12,1,9,9,0,0,0,0,0,0,1,1,1,1,1,1,1,1,1,19,1,1,1,1,9,1,1,1,1,1,1,1320.txt
0,0,0,0,0,0,0,0,22,21,13,4,3,3,18,0,0,0,0,0,0,0,0,0,0,10,12,1,9,9,0,0,0,0,0,0,1,1,1,1,1,1,1,1,1,19,1,1,5,5,9,1,1,1,1,5,5,1323.txt
0,0,0,0,0,0,0,0,22,21,13,4,3,3,18,0,0,0,0,0,0,0,0,0,0,10,12,1,9,9,0,0,0,0,0,0,1,1,1,1,1,1,1,1,1,19,1,1,5,5,9,0,0,0,25,5,5,1325.txt
0,0,0,0,0,0,0,0,22,21,13,4,3,3,18,0,0,0,0,0,0,0,0,0,0,10,12,1,9,9,0,0,0,0,0,2,1,1,1,1,1,1,1,1,1,19,1,1,5,5,9,8,19,8,18,5,5,1327.txt
0,0,0,0,12,0,0,0,22,21,13,4,3,3,18,0,0,0,0,7,0,0,0,0,0,10,12,11,9,9,0,0,0,0,0,0,2,5,4,2,2,13,2,26,2,19,13,4,6,22,2,8,11,8,0,6,24,1329.txt
0,0,0,0,0,0,0,0,22,21,13,4,3,3,18,0,0,0,0,0,0,0,0,0,0,10,12,1,9,9,0,0,0,0,0,0,1,1,1,1,1,1,1,1,1,19,1,1,5,5,9,1,1,1,1,5,5,1331.txt
0,0,9,0,0,4,3,21,22,21,13,4,3,3,18,5,0,12,13,0,0,12,9,9,10,10,12,4,9,9,0,0,0,0,0,0,6,18,0,6,0,24,0,6,6,19,19,18,0,19,9,13,14,26,13,20,0,1332.txt
0,0,0,0,0,0,0,0,22,21,13,4,3,3,18,0,0,0,0,0,0,0,0,0,0,10,12,1,9,9,21,0,0,0,0,0,1,1,1,1,1,1,1,1,1,19,1,1,5,5,9,1,1,1,1,5,5,1335.txt
20,19,15,3,2,0,0,0,2,5,3,3,4,4,4,9,9,1,7,10,6,15,6,13,6,21,7,0,22,21,14,1,19,6,12,1,2,2,2,2,2,2,2,26,2,8,27,3,3,3,5,19,0,5,12,25,28,1337.txt
0,0,0,0,0,0,0,0,22,21,13,4,3,3,18,0,0,0,0,0,0,0,0,0,0,10,12,1,9,9,0,0,0,0,0,0,1,1,1,1,1,1,1,1,1,19,1,1,5,5,9,15,19,17,17,5,5,1339.txt
0,0,0,0,0,0,0,0,22,21,13,4,3,3,18,0,0,0,0,0,0,0,0,0,0,10,12,1,9,9,0,0,0,0,0,0,1,1,1,1,1,1,1,1,1,19,1,1,5,5,9,0,0,7,29,5,5,1341.txt
0,0,0,0,0,0,0,0,22,21,13,4,3,3,18,0,0,0,0,0,0,0,0,0,0,10,12,1,9,9,0,0,0,0,0,0,1,1,1,1,1,1,1,1,1,19,1,1,5,5,9,0,0,7,13,5,5,1344.txt
0,0,0,0,0,0,0,0,22,21,13,4,3,3,18,0,0,0,0,0,0,0,0,0,0,10,12,1,9,9,0,0,0,0,0,0,1,1,1,1,1,1,1,1,1,19,1,1,5,5,9,1,1,1,1,5,5,1346.txt
0,0,0,0,0,0,0,0,22,21,13,4,3,3,18,0,0,0,0,0,0,0,0,0,0,10,12,1,9,9,0,0,0,0,0,0,1,1,1,1,1,1,1,1,1,19,1,1,5,5,9,0,0,5,0,5,5,1348.txt
29,19,25,15,20,26,11,11,30,6,24,17,21,17,24,22,26,30,14,26,18,20,1,27,1,24,26,11,24,29,30,8,21,28,30,24,22,21,15,24,21,21,12,14,15,25,23,27,13,27,24,28,30,28,7,12,12,1351.txt
0,0,0,0,0,0,0,0,22,21,13,4,3,3,18,0,0,0,0,0,0,0,0,0,0,10,12,1,9,9,0,0,0,0,0,0,1,1,1,1,1,1,1,1,1,19,1,1,5,5,9,0,0,5,0,5,5,1352.txt
0,0,0,0,0,0,0,0,22,21,13,4,3,3,18,0,0,0,0,0,0,0,0,0,0,10,12,1,9,9,0,0,0,0,0,0,1,1,1,1,1,27,1,1,1,19,1,1,5,5,9,1,1,1,1,5,5,1354.txt
0,0,0,0,0,0,0,0,22,21,13,4,3,3,18,0,0,0,0,0,0,0,0,0,0,10,12,1,9,9,21,0,0,0,0,0,1,1,1,1,1,1,1,1,1,19,1,1,5,5,9,6,5,6,0,5,5,1356.txt
0,0,0,0,0,0,0,0,22,21,13,4,3,3,18,0,0,0,0,0,0,0,0,0,0,10,12,1,9,9,0,0,0,0,0,0,1,1,1,1,1,1,1,1,1,19,1,1,5,5,9,1,1,1,1,5,5,1358.txt
0,0,0,0,0,0,0,0,22,21,13,4,3,3,18,0,0,0,0,0,0,0,0,0,0,10,12,1,9,9,0,0,0,0,0,0,1,1,1,1,1,27,1,1,1,19,1,1,1,1,9,1,1,1,1,1,1,1360.txt
0,0,0,0,0,0,0,0,22,21,13,4,3,3,18,0,0,0,0,0,0,0,0,0,0,10,12,0,9,9,21,0,0,0,0,0,2,5,4,2,2,5,2,26,2,19,4,4,6,4,9,19,0,5,0,4,4,1362.txt
0,0,0,0,0,0,0,0,22,21,13,4,3,3,18,0,0,0,0,0,0,0,0,0,0,10,12,1,9,9,0,0,0,0,0,0,1,1,1,1,1,1,1,1,1,19,1,1,5,5,9,0,0,7,12,5,5,1364.txt
0,0,0,0,0,0,0,0,22,21,13,4,3,3,18,0,0,0,0,0,0,0,0,0,0,10,12,1,9,9,0,0,0,0,0,0,1,1,1,1,1,1,1,1,1,19,1,1,5,5,9,1,1,1,1,5,5,1367.txt
0,19,0,3,0,23,2,16,22,5,3,3,4,4,4,10,21,8,1,22,6,15,6,28,6,21,7,7,22,21,14,1,8,25,12,1,2,6,11,2,2,5,2,26,2,11,13,11,7,8,16,8,15,8,18,27,30,1368.txt
0,0,0,0,0,0,0,0,22,21,13,4,3,3,18,0,0,0,0,0,0,0,0,0,0,10,12,1,9,9,0,0,0,0,0,0,1,1,1,1,1,4,1,1,1,19,1,1,5,5,9,22,0,7,12,5,5,1371.txt
0,0,0,0,0,0,0,0,22,21,13,4,3,3,18,0,0,0,0,0,0,0,0,0,0,10,12,1,9,9,21,0,0,0,0,2,1,1,1,1,1,1,1,1,1,19,1,1,5,5,9,6,5,5,12,5,5,1372.txt
0,0,0,0,0,0,0,0,22,21,13,4,3,3,18,0,0,0,0,0,0,0,0,0,0,10,12,18,9,9,21,0,0,0,0,0,6,4,5,6,0,5,0,6,6,19,5,17,25,6,9,13,14,0,18,6,8,1375.txt
0,0,0,0,0,0,0,0,22,21,13,4,3,3,18,0,0,0,0,0,0,0,0,0,0,10,12,1,9,9,21,0,0,0,0,0,1,1,1,1,1,1,1,1,1,19,1,1,5,5,9,0,0,7,18,5,5,1377.txt
0,0,0,0,0,0,0,0,22,21,13,4,3,3,18,0,0,0,0,0,0,0,0,0,0,10,12,1,9,9,0,0,0,0,0,0,1,1,1,1,1,1,1,1,1,19,1,1,5,5,9,19,0,7,0,5,5,1379.txt
0,0,0,1,12,23,2,16,3,9,5,5,22,5,5,2,2,2,22,8,6,5,6,26,6,21,7,0,22,21,7,1,19,15,8,24,13,2,2,16,15,27,17,14,20,15,22,20,23,3,2,20,0,6,12,25,28,1380.txt
0,0,0,0,0,0,0,0,22,21,0,18,0,0,0,0,0,0,0,0,0,0,0,0,0,10,12,2,9,9,0,0,0,0,0,0,6,2,2,6,0,27,0,6,6,19,22,20,23,3,9,10,19,11,5,25,28,1383.txt
0,0,0,0,0,0,0,0,22,21,13,4,3,3,18,0,0,0,0,0,0,0,0,0,0,10,12,0,9,9,0,0,0,0,0,0,2,2,2,2,2,27,2,26,7,19,22,20,23,3,9,19,0,5,0,25,28,1389.txt
0,0,0,0,0,0,0,0,1,21,13,4,3,3,18,0,0,0,0,0,0,0,0,0,0,10,12,11,9,9,0,0,0,0,0,0,27,9,11,13,2,1,2,26,7,19,13,4,7,22,9,8,11,8,0,27,24,1390.txt
0,0,0,0,0,0,0,0,22,21,13,4,3,3,18,0,0,0,0,0,0,0,0,0,0,10,12,4,9,9,0,0,0,0,0,0,6,5,4,6,0,1,0,6,6,19,4,4,6,6,9,0,0,5,0,6,24,1392.txt
0,0,0,0,0,0,0,0,22,21,13,4,3,3,18,0,0,0,0,0,0,0,0,0,0,10,12,1,9,9,0,0,0,0,0,0,1,1,1,1,1,1,1,1,1,19,1,1,5,5,9,1,1,1,1,5,5,1395.txt
0,0,0,0,0,0,0,0,22,21,13,4,3,3,18,0,0,0,0,0,0,0,0,0,0,10,12,1,9,9,0,0,0,0,0,0,1,1,1,1,1,4,1,1,1,19,1,1,5,5,9,0,0,7,0,5,5,1396.txt
0,0,0,0,22,0,0,0,3,4,13,4,3,3,18,0,0,0,0,7,0,0,0,0,0,10,12,1,9,9,21,0,0,0,0,0,1,1,1,1,1,1,1,1,1,19,1,1,5,5,2,8,11,8,0,5,5,1398.txt
0,0,0,0,0,0,0,0,22,21,13,4,3,3,18,0,0,0,0,0,0,0,0,0,0,10,12,1,9,9,21,0,0,0,0,0,1,1,1,1,1,1,1,1,1,19,1,1,5,5,9,1,1,1,1,5,5,1400.txt
0,0,0,0,0,0,0,0,22,21,13,4,3,3,18,0,0,0,0,0,0,0,0,0,0,10,12,9,9,9,21,0,0,0,0,0,6,2,2,6,27,1,23,6,6,19,22,20,23,3,9,8,25,8,19,25,28,1402.txt
0,0,0,0,0,0,0,0,22,21,13,4,3,3,18,0,0,0,0,0,0,0,0,0,0,10,12,7,9,9,0,0,0,0,0,0,2,28,24,2,2,6,2,26,2,19,18,12,15,18,9,28,11,27,24,23,25,1405.txt
0,0,0,0,0,0,0,0,22,21,13,4,3,3,18,0,0,0,0,0,0,0,0,0,0,10,12,1,9,9,0,0,0,0,0,0,1,1,1,1,1,1,1,1,1,19,1,1,5,5,9,0,0,5,0,5,5,1407.txt
0,0,0,0,0,0,0,0,22,21,13,4,3,3,18,0,0,0,0,0,0,0,0,0,0,10,12,1,9,9,21,0,0,0,0,0,1,1,1,1,1,1,1,1,1,19,1,1,12,12,9,8,11,8,0,7,7,1409.txt
20,29,25,21,2,8,18,6,2,5,3,3,4,4,8,9,9,9,7,10,14,3,14,22,7,12,15,11,10,11,12,11,15,29,15,30,14,21,15,29,23,9,22,18,11,8,19,26,30,19,19,30,3,28,7,30,13,1412.txt
0,0,0,0,0,0,0,0,22,21,13,4,3,3,18,0,0,0,0,0,0,0,0,0,0,10,12,1,9,9,0,0,0,0,0,0,1,1,1,1,1,1,1,1,1,19,1,1,5,5,9,1,1,1,1,5,5,1416.txt
0,0,0,0,0,0,0,0,22,21,13,4,3,3,18,0,0,0,0,0,0,0,0,0,0,10,12,1,9,9,0,0,0,0,0,0,1,1,1,1,1,1,1,1,1,19,1,1,8,7,9,20,0,7,0,1,1,1418.txt
0,0,0,0,0,0,0,0,22,21,13,4,3,3,18,0,0,0,0,0,0,0,0,0,0,10,12,1,9,9,0,0,0,0,0,0,1,1,1,1,1,1,1,1,1,19,1,1,5,5,9,1,1,1,1,5,5,1421.txt
0,0,0,0,0,0,0,0,22,21,13,4,3,3,18,0,0,0,0,0,0,0,0,0,0,10,12,4,9,9,0,0,0,0,0,0,6,4,5,6,0,4,0,6,6,19,5,17,25,6,9,0,0,6,0,9,24,1422.txt
0,0,0,0,0,0,0,0,22,21,13,4,3,3,18,0,0,0,0,0,0,0,0,0,0,10,12,1,9,9,0,0,0,0,0,0,1,1,1,1,1,1,1,1,1,19,1,1,5,5,9,1,1,1,1,5,5,1425.txt
0,0,0,0,0,0,0,0,22,21,13,4,3,3,18,0,0,0,0,0,0,0,0,0,0,10,12,1,9,9,21,0,0,0,0,0,1,1,1,1,1,1,1,1,1,20,1,1,5,5,9,0,0,5,18,5,5,1427.txt
0,0,0,0,0,0,0,0,22,21,13,4,3,3,18,0,0,0,0,0,0,0,0,0,0,10,12,1,9,9,0,0,0,0,0,0,1,1,1,1,1,1,1,1,1,0,1,1,5,5,9,19,0,5,0,5,5,1429.txt
0,0,0,0,0,0,0,0,22,21,13,4,3,3,18,0,0,0,0,0,0,0,0,0,0,10,12,20,9,9,21,18,25,0,0,0,6,5,5,6,6,10,6,6,6,19,5,17,6,8,0,10,11,11,5,6,30,1431.txt
0,0,0,0,0,0,0,0,22,21,13,4,3,3,18,0,0,0,0,0,0,0,0,0,0,10,12,4,9,9,21,0,0,0,0,0,24,5,4,21,12,4,12,25,28,19,4,4,6,4,9,19,0,5,0,4,4,1433.txt
0,0,0,0,0,0,0,0,22,21,13,4,3,3,18,0,0,0,0,0,0,0,0,0,0,10,12,1,9,9,21,0,0,0,0,0,1,1,1,1,1,27,1,1,1,19,1,1,1,1,9,8,30,8,0,1,1,1434.txt
0,0,0,0,0,0,0,0,22,21,13,4,3,3,18,0,0,0,0,0,0,0,0,0,0,10,12,1,9,9,21,0,0,0,0,0,1,1,1,1,1,27,1,1,1,19,1,1,1,1,9,8,30,8,0,1,1,1436.txt
0,0,0,0,0,0,0,0,22,21,0,18,0,0,0,0,29,0,0,0,0,0,0,0,0,10,12,11,9,9,0,0,0,0,0,0,6,14,25,6,0,5,0,6,6,18,9,21,25,11,9,8,15,8,19,6,30,1439.txt
0,0,0,0,0,0,0,0,22,21,13,4,3,3,18,0,0,0,0,0,0,0,0,0,0,10,12,1,9,9,21,0,0,0,0,0,1,1,1,1,1,1,1,1,1,19,1,1,8,7,9,20,0,7,0,1,1,1441.txt
0,0,0,0,0,0,0,0,22,21,13,4,3,3,18,0,0,0,0,0,0,0,0,0,0,10,12,0,9,9,0,0,0,0,0,0,19,5,4,22,15,1,17,30,28,19,4,4,6,4,9,0,0,5,0,4,4,1442.txt
0,0,0,0,0,0,0,0,22,21,0,18,0,0,0,0,0,0,0,0,0,0,0,0,0,10,12,0,9,9,21,0,0,0,0,3,2,12,18,2,2,6,2,26,2,0,18,12,15,18,9,0,0,0,2,23,25,1444.txt
0,0,0,0,0,0,0,0,22,21,13,4,3,3,18,0,0,0,0,0,0,0,0,0,0,10,12,1,9,9,21,0,0,0,0,0,1,1,1,1,1,1,1,1,1,19,1,1,1,1,9,13,14,7,18,10,10,1446.txt
0,0,0,0,0,0,0,0,22,21,13,4,3,3,18,0,0,0,0,0,0,0,0,0,0,10,12,8,9,9,21,0,0,0,0,0,6,2,2,6,0,27,0,6,6,19,22,20,23,3,9,0,0,20,0,25,28,1448.txt
0,0,0,0,0,0,0,0,22,21,13,4,3,3,18,0,0,0,0,0,0,0,0,0,0,10,12,1,9,9,0,0,0,0,0,0,1,1,1,1,1,1,1,1,1,19,1,1,8,7,11,1,1,1,1,1,1,1451.txt
0,0,0,0,0,0,0,0,22,21,13,4,3,3,18,0,0,0,0,0,0,0,0,0,0,10,12,1,9,9,0,0,0,0,0,0,1,1,1,1,1,1,1,1,1,19,1,1,5,5,9,1,1,1,1,5,5,1453.txt
0,0,0,0,0,0,0,0,22,21,13,4,3,3,18,0,0,0,0,0,0,0,0,0,0,10,12,1,9,9,21,0,0,0,0,0,1,1,1,1,1,24,1,1,1,19,1,1,5,5,9,6,5,6,12,5,5,1454.txt
20,11,0,3,0,0,0,0,1,5,3,3,4,4,4,30,6,10,7,20,6,15,6,13,6,5,7,0,5,6,7,9,1,7,8,1,2,2,2,2,2,27,2,26,2,9,22,20,23,3,1,0,0,5,18,25,28,1456.txt
0,0,0,0,0,0,0,0,22,21,13,4,3,3,18,0,0,0,0,0,0,0,0,0,0,10,12,1,9,9,0,0,0,0,0,0,1,1,1,1,1,1,1,1,1,19,1,1,12,12,9,8,15,8,19,7,7,1458.txt
0,0,0,0,0,0,0,0,22,21,13,4,3,3,18,0,0,0,0,0,0,0,0,0,0,10,12,0,9,9,21,0,0,0,0,2,6,2,2,6,0,27,0,6,6,19,22,20,23,3,9,19,0,6,12,25,28,1460.txt
0,0,0,0,0,0,0,0,22,21,13,4,3,3,18,0,0,0,0,0,0,0,0,0,0,10,12,1,9,9,19,0,0,0,0,0,1,1,1,1,1,1,1,1,1,19,1,1,5,5,9,0,0,7,0,5,5,1462.txt
0,0,0,0,0,0,0,0,22,21,13,4,3,3,18,0,0,0,0,0,0,0,0,0,0,10,12,1,9,9,0,0,0,0,0,0,1,1,1,1,1,1,1,1,1,19,1,1,5,5,9,1,1,1,1,5,5,1465.txt
0,0,0,0,0,0,0,0,22,21,13,4,3,3,18,0,0,0,0,0,0,0,0,0,0,10,12,1,9,9,0,0,0,0,0,0,1,1,1,1,1,1,1,1,1,19,1,1,5,5,9,1,1,1,1,5,5,1467.txt
0,0,0,0,0,0,0,0,22,21,13,4,3,3,18,0,0,0,0,0,0,0,0,0,0,10,12,1,9,9,0,0,0,0,0,0,1,1,1,1,1,1,1,1,1,19,1,1,5,5,9,1,1,1,1,5,5,1469.txt
20,29,11,3,2,8,18,6,2,5,3,3,4,4,4,9,9,9,10,10,16,6,17,20,9,12,20,18,10,11,11,11,22,17,24,21,15,17,0,18,23,17,12,17,10,8,18,18,16,18,16,22,0,6,12,20,18,1470.txt
0,11,1,15,28,0,0,0,1,5,3,3,4,4,4,30,6,3,7,20,1,1,1,27,1,5,7,0,5,6,7,1,10,7,8,1,2,2,2,2,2,27,2,26,2,9,22,20,23,3,6,0,0,5,2,25,28,1473.txt
0,0,0,0,0,0,0,0,22,21,13,4,3,3,18,0,0,0,0,0,0,0,0,0,0,10,12,1,9,9,0,0,0,0,0,0,1,1,1,1,1,1,1,1,1,19,1,1,5,5,9,1,1,1,1,5,5,1475.txt
0,0,0,0,0,0,0,0,22,21,13,4,3,3,18,0,0,0,0,0,0,0,0,0,0,10,12,1,9,9,21,0,0,0,0,0,1,1,1,1,1,1,1,1,1,19,1,1,1,1,9,20,0,7,0,1,1,1477.txt
0,0,0,0,0,0,0,0,22,21,13,4,3,3,18,0,0,0,0,0,0,0,0,0,0,10,12,9,9,9,0,0,0,0,0,0,2,6,4,2,2,5,2,26,2,19,4,11,11,22,9,10,15,11,5,6,24,1480.txt
0,18,11,15,19,0,0,0,7,3,2,2,2,2,2,17,3,4,3,17,1,1,1,5,1,11,3,1,3,3,3,4,4,3,3,4,1,1,1,1,1,1,1,1,1,5,1,1,5,5,1,1,1,1,1,5,5,1482.txt
0,0,0,0,0,0,0,0,22,21,13,4,3,3,18,0,0,0,0,0,0,0,0,0,0,10,12,12,9,9,0,0,0,0,0,0,2,5,4,2,2,1,2,26,2,19,4,4,6,4,9,8,11,8,0,4,4,1484.txt
0,0,0,0,0,23,2,16,22,21,13,4,3,3,18,0,0,0,0,0,0,0,0,0,0,10,12,9,9,9,10,0,0,21,22,6,2,9,11,2,3,5,18,3,2,7,4,11,7,4,9,8,15,8,0,4,4,1487.txt
0,0,0,0,0,0,0,0,22,21,13,4,3,3,18,0,0,0,0,0,0,0,0,0,0,10,12,1,9,9,0,0,0,0,0,0,1,1,1,1,1,4,1,1,1,19,1,1,1,1,9,0,0,7,18,1,1,1490.txt
0,0,0,0,0,0,0,0,22,21,13,4,3,3,18,0,0,0,0,0,0,0,0,0,0,10,12,1,9,9,21,0,0,0,0,0,1,1,1,1,1,1,1,1,1,19,1,1,12,12,9,0,0,5,0,7,7,1491.txt
20,19,25,21,15,16,18,6,19,5,3,3,4,4,4,21,21,8,1,26,6,5,6,26,6,21,8,11,22,21,30,8,8,15,7,1,12,13,14,14,30,8,30,27,7,15,18,16,27,18,16,8,30,8,0,19,23,1494.txt
18,19,14,15,20,29,18,6,21,5,3,3,4,4,4,10,26,1,9,23,3,14,22,14,18,27,13,16,26,13,15,17,9,29,13,11,29,15,29,4,1,1,1,1,1,11,6,8,2,21,29,19,17,21,12,2,2,1497.txt
0,0,0,0,0,0,0,0,22,21,13,4,3,3,18,0,0,0,0,0,0,0,0,0,0,10,12,1,9,9,0,0,0,0,0,0,1,1,1,1,1,1,1,1,1,19,1,1,5,5,9,1,1,1,1,5,5,1499.txt
0,0,0,0,0,0,0,0,22,21,13,4,3,3,18,0,0,0,0,0,0,0,0,0,0,10,12,1,9,9,0,0,0,0,0,0,1,1,1,1,1,4,1,1,1,19,1,1,5,5,9,1,1,1,1,5,5,1502.txt
0,0,0,0,0,23,2,16,22,21,13,4,3,3,18,0,0,0,0,0,0,0,0,0,0,10,12,11,9,9,17,0,0,20,21,6,3,2,2,3,2,27,2,26,7,7,22,20,23,3,9,8,11,8,18,25,28,1504.txt
0,0,0,0,0,4,3,21,22,21,0,18,0,0,0,0,0,0,0,0,0,0,0,0,0,10,12,6,9,9,21,0,0,0,0,3,14,18,0,17,24,17,22,14,10,19,18,28,16,18,9,30,19,28,5,20,15,1505.txt
0,0,9,0,0,0,0,0,22,21,13,4,3,3,18,5,0,12,13,0,0,13,9,9,10,10,12,1,9,9,0,0,0,0,0,0,1,1,1,1,1,1,1,1,1,19,1,1,8,7,9,1,1,1,1,1,1,1507.txt
0,11,0,15,0,0,0,0,22,3,2,2,2,2,2,13,6,3,3,19,1,1,1,27,1,5,3,1,5,6,7,4,4,7,8,4,1,1,1,1,1,1,1,1,1,9,1,1,5,5,8,8,19,8,18,5,5,1509.txt
0,0,0,0,0,0,0,0,22,21,13,4,3,3,18,0,0,0,0,0,0,0,0,0,0,10,12,0,9,9,0,0,0,0,0,2,22,28,24,23,15,24,17,30,24,19,20,18,21,20,9,23,14,5,12,29,17,1511.txt
0,0,0,0,0,0,0,0,22,21,13,4,3,3,18,0,0,0,0,0,0,0,0,0,0,10,12,0,9,9,0,0,0,0,0,0,2,5,4,2,2,4,2,26,2,19,4,4,6,6,9,19,0,5,18,6,9,1513.txt
0,0,0,0,0,0,0,0,22,21,20,4,3,3,18,0,0,0,0,0,0,0,0,0,0,10,12,0,9,9,21,0,0,0,0,0,2,5,4,2,2,4,2,26,2,0,4,4,6,4,9,19,0,5,0,4,4,1515.txt
0,0,0,0,0,0,0,0,22,21,13,4,3,3,18,0,0,0,0,0,0,0,0,0,0,10,12,1,9,9,21,0,0,0,0,0,1,1,1,1,1,1,1,1,1,19,1,1,5,5,9,1,1,1,1,5,5,1518.txt
0,0,0,0,0,0,0,0,22,21,0,18,0,0,0,0,0,0,0,0,0,0,0,0,0,10,12,18,9,9,19,0,0,0,0,0,6,18,0,6,0,17,0,6,6,19,18,18,16,18,9,6,5,6,12,20,18,1519.txt
0,0,0,0,0,0,0,0,22,21,13,4,3,3,18,0,0,0,0,0,0,0,0,0,0,10,12,1,9,9,21,0,0,0,0,0,1,1,1,1,1,1,1,1,1,19,1,1,5,5,9,19,0,5,0,5,5,1521.txt
0,0,0,0,0,0,0,0,22,21,13,4,3,3,18,0,0,0,0,0,0,0,0,0,0,10,12,1,9,9,0,0,0,0,0,0,1,1,1,1,1,1,1,1,1,19,1,1,5,5,9,0,0,5,0,5,5,1523.txt
0,0,0,0,0,0,0,0,22,21,20,4,3,3,18,0,0,0,0,0,0,0,0,0,0,10,12,1,9,9,21,0,0,0,0,0,1,1,1,1,1,1,1,1,1,0,1,1,5,5,9,0,0,7,12,5,5,1526.txt
0,0,0,0,0,0,0,0,22,21,13,4,3,3,18,0,0,0,0,0,0,0,0,0,0,10,12,1,9,9,0,0,0,0,0,2,1,1,1,1,1,1,1,1,1,19,1,1,5,5,9,6,5,6,12,5,5,1528.txt
20,11,1,15,28,0,0,0,26,6,9,15,16,12,16,30,13,18,15,20,1,1,1,26,1,1,26,27,5,6,14,9,20,11,12,21,23,23,13,21,15,17,17,18,10,9,18,28,19,18,16,29,30,28,0,19,23,1529.txt
0,0,0,0,0,0,0,0,22,21,13,4,3,3,18,0,0,0,0,0,0,0,0,0,0,10,12,0,9,9,0,0,0,0,0,0,2,5,4,2,2,5,2,26,2,19,4,11,6,4,9,0,0,5,0,4,4,1532.txt
0,0,0,0,0,0,0,0,22,21,13,4,3,3,18,0,0,0,0,0,0,0,0,0,0,10,12,1,9,9,21,0,0,0,0,2,1,1,1,1,1,1,1,1,1,19,1,1,8,7,9,26,13,3,7,1,1,1534.txt
20,19,15,3,20,0,0,0,20,5,3,3,4,4,4,20,3,1,10,16,3,5,27,26,29,27,20,18,26,25,7,11,1,15,8,22,15,18,0,18,15,17,17,25,20,15,18,18,19,18,1,13,14,20,12,0,17,1536.txt
0,0,0,0,0,0,0,0,22,21,13,4,3,3,18,0,0,0,0,0,0,0,0,0,0,10,12,29,9,9,0,0,0,0,0,0,6,4,4,6,0,4,0,6,6,19,4,4,10,6,9,0,0,20,0,6,9,1538.txt
0,0,0,0,0,0,0,0,22,21,13,4,3,3,18,0,0,0,0,0,0,0,0,0,0,10,12,1,9,9,0,0,0,0,0,0,1,1,1,1,1,1,1,1,1,0,1,1,5,5,9,1,1,1,1,5,5,1540.txt
0,0,0,0,0,0,0,0,22,21,13,4,3,3,18,0,0,0,0,0,0,0,0,0,0,10,12,1,9,9,0,0,0,0,0,0,1,1,1,1,1,1,1,1,1,19,1,1,5,5,9,1,1,1,1,5,5,1543.txt
0,0,0,0,0,0,0,0,22,21,13,4,3,3,18,0,0,0,0,0,0,0,0,0,0,10,12,1,9,9,19,0,0,0,0,0,1,1,1,1,1,1,1,1,1,19,1,1,5,5,9,1,1,1,1,5,5,1545.txt
20,11,1,15,28,0,0,0,1,5,3,3,4,4,4,30,6,3,7,20,14,15,14,27,25,5,7,11,11,10,7,9,11,7,8,10,12,5,4,3,2,5,2,26,2,9,13,4,6,6,1,8,16,8,0,27,24,1546.txt
0,0,0,0,0,0,0,0,22,21,13,4,3,3,18,0,0,0,0,0,0,0,0,0,0,10,12,19,9,9,21,0,0,0,0,2,24,5,5,21,13,4,15,25,29,19,5,17,6,6,9,0,0,5,13,6,9,1548.txt
0,0,0,0,0,0,0,0,22,21,13,4,3,3,18,0,0,0,0,0,0,0,0,0,0,10,12,1,9,9,21,0,0,0,0,2,1,1,1,1,1,1,1,1,1,19,1,1,5,5,9,28,11,28,5,5,5,1551.txt
0,0,0,0,0,0,0,0,22,21,13,4,3,3,18,0,0,0,0,0,0,0,0,0,0,10,12,1,9,9,0,0,0,0,0,0,1,1,1,1,1,1,1,1,1,19,1,1,5,5,9,0,0,5,0,5,5,1552.txt
0,0,0,0,0,0,0,0,22,21,13,4,3,3,18,0,0,0,0,0,0,0,0,0,0,10,12,1,9,9,18,0,0,0,0,0,1,1,1,1,1,1,1,1,1,19,1,1,5,5,9,1,1,1,1,5,5,1556.txt
0,0,0,0,0,0,0,0,22,21,13,4,3,3,18,0,0,0,0,0,0,0,0,0,0,10,12,1,9,9,0,0,0,0,0,0,1,1,1,1,1,1,1,1,1,19,1,1,5,5,9,1,1,1,1,5,5,1558.txt
0,0,9,0,0,0,0,0,22,21,0,18,0,0,0,5,0,6,6,0,0,13,9,9,10,10,12,8,9,9,21,0,0,0,0,0,6,4,5,6,0,4,0,6,6,19,5,17,25,6,9,0,0,0,0,6,9,1561.txt
0,0,0,0,0,0,0,0,22,21,20,4,3,3,18,0,0,0,0,0,0,0,0,0,0,10,12,1,9,9,0,0,0,0,0,0,1,1,1,1,1,1,1,1,1,0,1,1,5,5,9,1,1,1,1,5,5,1563.txt
0,0,0,0,0,0,0,0,22,21,13,4,3,3,18,0,0,0,0,0,0,0,0,0,0,10,12,1,9,9,21,0,0,0,0,0,1,1,1,1,1,1,1,1,1,19,1,1,1,1,9,1,1,1,1,1,1,1565.txt
0,0,0,0,0,0,0,0,22,21,13,4,3,3,18,0,0,0,0,0,0,0,0,0,0,10,12,1,9,9,0,0,0,0,0,0,1,1,1,1,1,1,1,1,1,19,1,1,5,5,9,1,1,1,1,5,5,1567.txt
0,0,0,0,0,0,0,0,22,21,13,4,3,3,18,0,0,0,0,0,0,0,0,0,0,10,12,0,9,9,0,0,0,0,0,0,8,5,4,7,2,1,2,26,2,19,4,4,6,4,11,0,0,5,3,4,4,1570.txt
0,0,0,0,0,0,0,0,22,21,13,4,3,3,18,0,0,0,0,0,0,0,0,0,0,10,12,19,9,9,21,0,0,0,0,0,6,28,24,6,0,0,0,6,6,19,17,0,21,17,9,0,0,26,13,0,0,1572.txt
0,0,0,0,0,0,0,0,22,21,13,4,3,3,18,0,0,0,0,0,0,0,0,0,0,10,12,18,9,9,19,0,0,0,0,0,6,2,2,6,0,27,0,6,6,19,22,20,23,3,9,22,0,20,0,25,28,1574.txt
0,0,0,0,0,0,0,0,22,21,13,4,3,3,18,0,0,0,0,0,0,0,0,0,0,10,12,1,9,9,0,0,0,0,0,0,1,1,1,1,1,1,1,1,1,19,1,1,12,12,9,0,0,5,0,7,7,1581.txt
0,0,0,0,0,0,0,0,22,21,13,4,3,3,18,0,0,0,0,0,0,0,0,0,0,10,12,1,9,9,21,0,0,0,0,0,1,1,1,1,1,1,1,1,1,19,1,1,5,5,9,13,14,5,18,5,5,1583.txt
0,0,0,0,0,0,0,0,22,21,0,18,0,0,0,0,0,0,0,0,0,0,0,0,0,10,12,11,9,9,0,0,0,0,0,3,13,18,18,16,23,23,22,21,10,19,18,18,21,18,9,28,11,28,30,26,26,1585.txt
0,0,0,0,0,0,0,0,1,21,13,4,3,3,18,0,0,0,0,0,0,0,0,0,0,10,12,0,9,9,21,0,0,0,0,0,2,5,4,2,2,4,2,26,2,19,4,4,6,4,9,0,0,5,0,4,4,1587.txt
0,0,0,0,0,0,0,0,22,21,13,4,3,3,18,0,0,0,0,0,0,0,0,0,0,10,12,0,9,9,21,0,0,0,0,0,2,5,4,2,2,4,2,26,2,19,4,4,6,6,9,0,0,5,0,6,9,1589.txt
0,0,0,0,0,0,0,0,22,21,13,4,3,3,18,0,0,0,0,0,0,0,0,0,0,10,12,1,9,9,0,0,0,0,0,0,1,1,1,1,1,1,1,1,1,19,1,1,5,5,9,1,1,1,1,5,5,1590.txt
0,0,0,0,0,0,0,0,22,21,13,4,3,3,18,0,0,0,0,0,0,0,0,0,0,10,12,0,9,9,21,0,0,0,0,0,2,5,4,2,2,4,2,26,2,19,4,4,6,4,9,0,0,5,0,4,4,1594.txt
0,0,0,0,0,0,0,0,22,21,13,4,3,3,18,0,0,0,0,0,0,0,0,0,0,10,12,1,9,9,0,0,0,0,0,0,1,1,1,1,1,1,1,1,1,19,1,1,5,5,9,1,1,1,1,5,5,1596.txt
0,0,0,0,0,0,0,0,22,21,13,4,3,3,18,0,0,0,0,0,0,0,0,0,0,10,12,1,9,9,21,0,0,0,0,0,1,1,1,1,1,1,1,1,1,19,1,1,5,5,9,1,1,1,1,5,5,1598.txt
0,0,0,0,0,0,0,0,22,21,13,4,3,3,18,0,0,0,0,0,0,0,0,0,0,10,12,1,9,9,0,0,0,0,0,0,1,1,1,1,1,1,1,1,1,19,1,1,5,5,9,1,1,1,1,5,5,1600.txt
0,0,0,0,0,0,0,0,22,21,13,4,3,3,18,0,0,0,0,0,0,0,0,0,0,10,12,0,9,9,21,0,0,0,0,0,13,2,2,16,23,27,12,21,20,19,22,20,23,3,9,0,0,21,12,25,28,1602.txt
0,0,0,0,0,0,0,0,22,21,13,4,3,3,18,0,0,0,0,0,0,0,0,0,0,10,12,1,9,9,0,0,0,0,0,0,1,1,1,1,1,1,1,1,1,19,1,1,5,5,9,1,1,1,1,5,5,1604.txt
0,0,0,0,0,0,0,0,22,21,13,4,3,3,18,0,0,0,0,0,0,0,0,0,0,10,12,0,9,9,21,0,0,0,0,0,2,5,4,2,2,4,2,26,2,19,4,4,6,6,9,19,0,21,0,6,24,1605.txt
0,0,0,0,0,23,2,16,22,21,13,4,3,3,18,0,0,0,0,0,0,0,0,0,0,10,12,18,9,9,10,0,0,8,10,0,13,5,5,16,15,27,17,25,10,7,22,20,23,4,9,22,0,6,0,4,4,1608.txt
0,0,0,0,0,0,0,0,22,21,13,4,3,3,18,0,0,0,0,0,0,0,0,0,0,10,12,1,9,9,0,0,0,0,0,0,1,1,1,1,1,1,1,1,1,19,1,1,5,5,9,19,0,5,0,5,5,1610.txt
0,0,0,0,0,0,0,0,22,21,13,4,3,3,18,0,0,0,0,0,0,0,0,0,0,10,12,29,9,9,0,0,0,0,0,0,6,28,24,6,0,0,0,6,6,19,18,0,21,18,9,0,0,5,13,17,19,1612.txt
0,0,0,0,0,0,0,0,22,21,13,4,3,3,18,0,0,0,0,0,0,0,0,0,0,10,12,1,9,9,0,0,0,0,0,0,1,1,1,1,1,1,1,1,1,19,1,1,5,5,9,1,1,1,1,5,5,1615.txt
0,0,0,0,0,0,0,0,22,21,13,4,3,3,18,0,0,0,0,0,0,0,0,0,0,10,12,1,9,9,0,0,0,0,0,0,1,1,1,1,1,4,1,1,1,19,1,1,1,1,9,13,14,7,0,7,7,1616.txt
0,0,0,0,0,0,0,0,22,21,13,4,3,3,18,0,0,0,0,0,0,0,0,0,0,10,12,1,9,9,0,0,0,0,0,0,1,1,1,1,1,1,1,1,1,19,1,1,5,5,9,0,0,7,0,5,5,1618.txt
0,0,0,0,0,0,0,0,22,21,13,4,3,3,18,0,0,0,0,0,0,0,0,0,0,10,12,4,9,9,0,0,0,0,0,0,13,4,5,16,23,5,12,21,10,19,5,17,25,11,9,22,0,6,12,6,24,1622.txt
0,0,0,0,0,0,0,0,22,21,20,4,3,3,18,0,0,0,0,0,0,0,0,0,0,10,12,1,9,9,0,0,0,0,0,0,1,1,1,1,1,1,1,1,1,0,1,1,1,1,9,0,0,7,0,10,10,1623.txt
0,0,0,0,0,0,0,0,22,21,13,4,3,3,18,0,0,0,0,0,0,0,0,0,0,10,12,1,9,9,0,0,0,0,0,0,1,1,1,1,1,1,1,1,1,19,1,1,8,7,9,1,1,1,1,1,1,1626.txt
0,0,0,0,0,0,0,0,22,21,13,4,3,3,18,0,0,0,0,0,0,0,0,0,0,10,12,0,9,9,0,0,0,0,0,0,2,5,4,2,2,4,2,26,2,19,4,4,6,6,9,0,0,0,0,6,9,1629.txt
0,0,0,0,0,0,0,0,22,21,13,4,3,3,18,0,0,0,0,0,0,0,0,0,0,10,12,1,9,9,0,0,0,0,0,0,1,1,1,1,1,1,1,1,1,19,1,1,5,5,9,0,0,5,0,5,5,1631.txt
0,0,0,0,0,0,0,0,22,21,13,4,3,3,18,0,0,0,0,0,0,0,0,0,0,10,12,1,9,9,0,0,0,0,0,0,1,1,1,1,1,4,1,1,1,19,1,1,1,1,9,19,0,6,12,7,7,1632.txt
0,0,0,0,0,0,0,0,22,21,0,18,0,0,0,0,0,0,0,0,0,0,0,0,0,10,12,0,9,9,21,0,0,0,0,0,6,4,5,6,0,4,0,6,6,0,5,17,4,6,9,0,0,21,0,6,9,1637.txt
0,0,0,0,0,0,0,0,22,21,13,4,3,3,18,0,0,0,0,0,0,0,0,0,0,10,12,0,9,9,21,0,0,0,0,2,2,2,2,2,2,27,2,26,2,19,22,20,23,3,9,19,0,5,12,25,28,1639.txt
0,18,0,15,0,0,0,0,20,3,2,2,2,2,2,22,26,4,3,16,1,1,1,5,1,11,3,1,26,13,11,17,1,26,25,30,1,1,1,1,1,1,1,1,1,11,1,1,5,5,1,13,14,7,0,5,5,1641.txt
0,0,0,0,0,0,0,0,22,21,13,4,3,3,18,0,0,0,0,0,0,0,0,0,0,10,12,0,9,9,0,0,0,0,0,0,2,5,4,2,2,1,2,26,2,19,4,4,6,4,9,0,0,5,0,4,4,1643.txt
0,0,0,0,0,0,0,0,22,21,13,4,3,3,18,0,0,0,0,0,0,0,0,0,0,10,12,19,9,9,21,0,0,0,0,0,6,4,5,6,0,4,0,6,6,19,5,17,25,6,9,0,0,20,0,6,9,1645.txt
0,0,0,0,0,0,0,0,22,21,13,4,3,3,18,0,0,0,0,0,0,0,0,0,0,10,12,0,9,9,21,0,0,0,0,0,2,5,4,2,2,4,2,26,2,19,4,4,6,4,9,19,0,5,0,4,4,1647.txt
0,0,0,0,0,0,0,0,22,21,13,4,3,3,18,0,0,0,0,0,0,0,0,0,0,10,12,1,9,9,21,0,0,0,0,0,1,1,1,1,1,4,1,1,1,19,1,1,1,1,9,19,0,6,12,7,7,1650.txt
0,0,0,0,0,0,0,0,22,21,13,4,3,3,18,0,0,0,0,0,0,0,0,0,0,10,12,1,9,9,21,0,0,0,0,0,1,1,1,1,1,1,1,1,1,19,1,1,5,5,9,0,0,5,18,5,5,1652.txt
0,0,0,0,0,0,0,0,22,21,13,4,3,3,18,0,0,0,0,0,0,0,0,0,0,10,12,1,9,9,0,0,0,0,0,0,1,1,1,1,1,1,1,1,1,19,1,1,5,5,9,1,1,1,1,5,5,1654.txt
0,0,0,0,0,0,0,0,22,21,13,4,3,3,18,0,0,0,0,0,0,0,0,0,0,10,12,1,9,9,21,0,0,0,0,0,1,1,1,1,1,1,1,1,1,19,1,1,5,5,9,0,0,5,0,5,5,1655.txt
0,0,0,0,0,0,0,0,22,21,13,4,3,3,18,0,0,0,0,0,0,0,0,0,0,10,12,11,9,9,0,0,0,0,0,0,2,5,11,2,2,5,2,26,7,19,4,11,6,8,9,8,11,8,0,6,8,1657.txt
0,0,0,0,0,0,0,0,22,21,13,4,3,3,18,0,0,0,0,0,0,0,0,0,0,10,12,1,9,9,0,0,0,0,0,0,1,1,1,1,1,1,1,1,1,19,1,1,8,7,9,1,1,1,1,1,1,1660.txt
0,0,0,0,0,0,0,0,22,21,13,4,3,3,18,0,0,0,0,0,0,0,0,0,0,10,12,11,9,9,0,0,0,0,0,0,14,2,2,29,14,27,16,17,10,19,22,20,23,3,9,10,11,11,7,25,28,1662.txt
0,0,0,0,0,0,0,0,22,21,13,4,3,3,18,0,0,0,0,0,0,0,0,0,0,10,12,0,9,9,0,0,0,0,0,0,6,5,4,6,0,4,0,6,6,19,4,4,6,4,9,0,0,21,0,4,4,1663.txt
0,0,0,0,0,0,0,0,22,21,13,4,3,3,18,0,0,0,0,0,0,0,0,0,0,10,12,1,9,9,0,0,0,0,0,0,1,1,1,1,1,1,1,1,1,19,1,1,5,5,9,0,0,5,0,5,5,1666.txt
0,0,0,0,0,0,0,0,22,21,13,4,3,3,18,0,0,0,0,0,0,0,0,0,0,10,12,1,9,9,0,0,0,0,0,0,1,1,1,1,1,1,1,1,1,19,1,1,5,5,9,1,1,1,1,5,5,1667.txt
0,0,0,0,0,0,0,0,22,21,13,4,3,3,18,0,0,0,0,0,0,0,0,0,0,10,12,1,9,9,0,0,0,0,0,0,1,1,1,1,1,1,1,1,1,0,1,1,5,5,9,1,1,1,1,5,5,1669.txt
0,0,0,0,0,0,0,0,22,21,13,4,3,3,18,0,0,0,0,0,0,0,0,0,0,10,12,1,9,9,0,0,0,0,0,0,1,1,1,1,1,1,1,1,1,19,1,1,8,7,9,1,1,1,1,1,1,1671.txt
0,0,0,0,0,0,0,0,22,21,13,4,3,3,18,0,0,0,0,0,0,0,0,0,0,10,12,1,9,9,0,0,0,0,0,0,1,1,1,1,1,1,1,1,1,19,1,1,5,5,9,19,0,5,0,5,5,1673.txt
0,0,0,0,0,0,0,0,22,21,13,4,3,3,18,0,0,0,0,0,0,0,0,0,0,10,12,1,9,9,0,0,0,0,0,0,1,1,1,1,1,1,1,1,1,19,1,1,5,5,9,0,0,6,0,5,5,1676.txt
0,0,0,0,0,0,0,0,22,21,13,4,3,3,18,0,0,0,0,0,0,0,0,0,0,10,12,1,9,9,0,0,0,0,0,0,1,1,1,1,1,1,1,1,1,19,1,1,5,5,9,1,1,1,1,5,5,1677.txt
0,0,0,0,0,0,0,0,22,21,0,18,0,0,0,0,0,0,0,0,0,0,0,0,0,10,12,0,9,9,0,0,0,0,0,0,2,5,25,2,2,13,2,26,2,19,9,21,6,6,9,0,0,21,0,6,30,1680.txt
20,19,15,3,2,0,0,0,2,5,3,3,4,4,4,3,9,1,9,3,6,15,6,28,6,12,7,0,10,11,7,11,22,6,8,1,2,5,4,2,2,13,2,26,2,8,4,4,6,6,5,19,0,6,0,27,24,1682.txt
0,0,0,0,0,0,0,0,1,21,13,4,3,3,18,0,0,0,0,0,0,0,0,0,0,10,12,0,9,9,21,0,0,0,0,0,2,5,4,2,2,1,2,26,2,19,4,4,6,4,9,19,0,5,0,4,4,1684.txt
0,0,0,0,0,0,0,0,22,21,13,4,3,3,18,0,0,0,0,0,0,0,0,0,0,10,12,1,9,9,0,0,0,0,0,0,1,1,1,1,1,1,1,1,1,19,1,1,5,5,9,1,1,1,1,5,5,1686.txt
0,0,0,0,0,0,0,0,22,21,13,4,3,3,18,0,0,0,0,0,0,0,0,0,0,10,12,1,9,9,0,0,0,0,0,0,1,1,1,1,1,4,1,1,1,19,1,1,5,5,9,22,0,7,0,5,5,1692.txt
0,0,0,0,0,0,0,0,22,21,13,4,3,3,18,0,0,0,0,0,0,0,0,0,0,10,12,1,9,9,21,0,0,0,0,0,1,1,1,1,1,1,1,1,1,19,1,1,5,5,9,1,1,1,1,5,5,1694.txt
0,0,0,0,0,0,0,0,22,21,13,4,3,3,18,0,0,0,0,0,0,0,0,0,0,10,12,1,9,9,18,0,0,0,0,0,1,1,1,1,1,1,1,1,1,19,1,1,5,5,9,1,1,1,1,5,5,1696.txt
0,0,0,0,0,0,0,0,22,21,13,4,3,3,18,0,0,0,0,0,0,0,0,0,0,10,12,1,9,9,0,0,0,0,0,0,1,1,1,1,1,1,1,1,1,19,1,1,5,5,9,1,1,1,1,5,5,1698.txt
0,0,0,0,0,0,0,0,22,21,13,4,3,3,18,0,0,0,0,0,0,0,0,0,0,10,12,1,9,9,21,0,0,0,0,0,1,1,1,1,1,1,1,1,1,19,1,1,5,5,9,1,1,1,1,5,5,1699.txt
0,0,0,0,0,0,0,0,22,21,13,4,3,3,18,0,0,0,0,0,0,0,0,0,0,10,12,1,9,9,0,0,0,0,0,0,1,1,1,1,1,1,1,1,1,19,1,1,5,5,9,0,0,5,0,5,5,1701.txt
0,0,0,0,0,0,0,0,22,21,13,4,3,3,18,0,0,0,0,0,0,0,0,0,0,10,12,1,9,9,0,0,0,0,0,0,1,1,1,1,1,1,1,1,1,19,1,1,5,5,9,0,0,5,12,5,5,1705.txt
0,0,0,0,0,0,0,0,22,21,13,4,3,3,18,0,0,0,0,0,0,0,0,0,0,10,12,1,9,9,0,0,0,0,0,0,1,1,1,1,1,1,1,1,1,19,1,1,5,5,9,0,0,5,0,5,5,1707.txt
0,0,0,0,0,0,0,0,22,21,13,4,3,3,18,0,0,0,0,0,0,0,0,0,0,10,12,1,9,9,0,0,0,0,0,0,1,1,1,1,1,1,1,1,1,19,1,1,5,5,11,1,1,1,1,5,5,1709.txt
0,0,0,0,0,0,0,0,22,21,13,4,3,3,18,0,0,0,0,0,0,0,0,0,0,10,12,1,9,9,21,0,0,0,0,0,1,1,1,1,1,1,1,1,1,19,1,1,5,5,10,1,1,1,1,5,5,1715.txt
0,0,0,0,0,0,0,0,22,21,0,18,0,0,0,0,29,0,0,0,0,0,0,0,0,10,12,0,9,9,0,0,0,0,0,0,2,5,4,2,2,4,2,26,2,19,4,4,6,6,9,0,0,21,0,6,9,1717.txt
0,0,0,0,0,0,0,0,22,21,13,4,3,3,18,0,0,0,0,0,0,0,0,0,0,10,12,1,9,9,0,0,0,0,0,0,1,1,1,1,1,1,1,1,1,19,1,1,5,5,9,1,1,1,1,5,5,1720.txt
0,0,0,0,0,0,0,0,22,21,13,4,3,3,18,0,0,0,0,0,0,0,0,0,0,10,12,1,9,9,0,0,0,0,0,0,1,1,1,1,1,1,1,1,1,19,1,1,1,1,11,1,1,1,1,1,1,1723.txt
0,0,0,0,0,0,0,0,22,21,13,4,3,3,18,0,0,0,0,0,0,0,0,0,0,10,12,1,9,9,0,0,0,0,0,0,1,1,1,1,1,1,1,1,1,19,1,1,5,5,9,1,1,1,1,5,5,1725.txt
0,0,0,0,0,0,0,0,22,21,13,4,3,3,18,0,0,0,0,0,0,0,0,0,0,10,12,1,9,9,0,0,0,0,0,0,1,1,1,1,1,1,1,1,1,19,1,1,5,5,9,1,1,1,1,5,5,1727.txt
0,0,0,0,0,0,0,0,22,21,0,18,0,0,0,0,0,0,0,0,0,0,0,0,0,10,12,0,9,9,21,0,0,0,0,0,2,5,4,2,2,4,2,26,2,19,4,4,6,6,9,0,0,21,2,6,9,1728.txt
0,0,0,0,0,0,0,0,22,21,13,4,3,3,18,0,0,0,0,0,0,0,0,0,0,10,12,1,9,9,0,0,0,0,0,0,1,1,1,1,1,1,1,1,1,19,1,1,5,5,9,1,1,1,1,5,5,1732.txt
0,0,0,0,0,0,0,0,22,21,13,4,3,3,18,0,0,0,0,0,0,0,0,0,0,10,12,4,9,9,0,0,0,0,0,0,6,4,5,6,0,4,0,6,6,19,5,17,25,6,9,0,0,7,0,6,9,1734.txt
0,0,0,0,0,0,0,0,22,21,0,18,0,0,0,0,29,0,0,0,0,0,0,0,0,10,12,0,9,9,21,0,0,0,0,0,2,2,2,2,2,2,2,26,2,18,27,3,3,3,9,0,0,21,0,25,28,1735.txt
0,0,0,0,0,0,0,0,22,21,13,4,3,3,18,0,0,0,0,0,0,0,0,0,0,10,12,0,9,9,0,0,0,0,0,0,2,5,4,2,2,4,2,26,2,19,4,4,6,4,9,19,0,5,0,4,4,1737.txt
0,0,0,0,0,0,0,0,22,21,13,4,3,3,18,0,0,0,0,0,0,0,0,0,0,10,12,7,9,9,21,0,0,0,0,2,2,12,18,2,2,6,2,26,2,19,16,12,15,16,9,28,19,28,5,23,25,1739.txt
0,0,0,0,0,0,0,0,22,21,13,4,3,3,18,0,0,0,0,0,0,0,0,0,0,10,12,1,9,9,21,0,0,0,0,0,1,1,1,1,1,1,1,1,1,19,1,1,1,1,9,15,11,17,0,1,1,1744.txt
0,0,0,0,0,0,0,0,22,21,13,4,3,3,18,0,0,0,0,0,0,0,0,0,0,10,12,11,9,9,21,0,0,0,0,0,6,2,2,6,0,27,0,6,6,19,22,20,23,3,9,8,30,8,19,25,28,1745.txt
0,0,0,0,0,0,0,0,22,21,13,4,3,3,18,0,0,0,0,0,0,0,0,0,0,10,12,1,9,9,0,0,0,0,0,0,1,1,1,1,1,1,1,1,1,0,1,1,5,5,9,0,0,5,0,5,5,1747.txt
0,0,0,0,0,0,0,0,22,21,0,18,0,0,0,0,0,0,0,0,0,0,0,0,0,10,12,0,9,9,21,0,0,0,0,3,2,12,14,2,2,6,2,26,2,19,18,12,15,18,9,0,0,0,2,23,25,1749.txt
0,0,0,0,0,4,3,21,22,21,13,4,3,3,18,0,0,0,0,0,0,0,0,0,0,10,12,18,9,9,17,0,0,10,27,3,6,18,0,6,19,23,19,6,6,3,20,28,16,20,9,6,5,6,12,15,17,1751.txt
0,0,0,0,0,0,0,0,22,21,13,4,3,3,18,0,0,0,0,0,0,0,0,0,0,10,12,29,9,9,0,0,0,0,0,0,6,4,5,6,0,4,0,6,6,19,5,17,25,6,9,0,0,20,0,6,9,1755.txt
0,0,0,0,0,0,0,0,22,21,13,4,3,3,18,0,0,0,0,0,0,0,0,0,0,10,12,1,9,9,0,0,0,0,0,0,1,1,1,1,1,4,1,1,1,19,1,1,8,7,9,1,1,1,1,1,1,1759.txt
0,0,0,0,0,0,0,0,22,21,13,4,3,3,18,0,0,0,0,0,0,0,0,0,0,10,12,26,9,9,21,18,25,0,0,0,6,5,4,6,6,4,6,6,6,19,4,4,6,4,9,8,11,8,0,4,4,1762.txt
18,11,1,15,28,27,4,4,26,3,2,2,2,2,2,13,12,3,3,3,1,1,18,27,8,1,3,1,3,3,3,4,4,3,3,4,29,15,29,1,1,1,1,1,1,5,2,2,9,2,8,1,1,1,1,22,11,1764.txt
0,0,0,0,0,0,0,0,22,21,20,4,3,3,18,0,0,0,0,0,0,0,0,0,0,10,12,0,9,9,0,0,0,0,0,0,2,5,4,2,2,4,2,26,2,0,4,4,6,6,9,0,0,5,18,9,6,1765.txt
20,19,15,30,2,0,0,0,2,5,3,3,4,4,4,9,9,1,10,10,3,15,27,28,18,12,20,2,10,11,15,11,9,28,13,9,15,18,0,18,23,21,12,21,20,8,0,28,29,0,27,30,19,14,5,0,18,1769.txt
0,0,0,0,0,0,0,0,22,21,13,4,3,3,18,0,0,0,0,0,0,0,0,0,0,10,12,11,9,9,21,0,0,0,0,3,2,12,18,2,2,6,2,26,2,19,18,12,15,18,9,28,11,28,30,23,25,1771.txt
0,0,0,0,0,0,0,0,22,21,13,4,3,3,18,0,0,0,0,0,0,0,0,0,0,10,12,1,9,9,0,0,0,0,0,0,1,1,1,1,1,1,1,1,1,19,1,1,1,1,9,8,15,8,0,7,7,1774.txt
0,0,0,0,0,0,0,0,22,21,13,4,3,3,18,0,0,0,0,0,0,0,0,0,0,10,12,18,9,9,0,0,0,0,0,0,6,2,2,6,0,1,0,6,6,19,22,20,23,3,9,19,0,5,18,25,28,1775.txt
0,0,0,0,0,0,0,0,22,21,13,4,3,3,18,0,0,0,0,0,0,0,0,0,0,10,12,1,9,9,0,0,0,0,0,0,1,1,1,1,1,1,1,1,1,19,1,1,5,5,9,1,1,1,1,5,5,1778.txt
0,0,0,0,0,0,0,0,22,21,20,4,3,3,18,0,0,0,0,0,0,0,0,0,0,10,12,0,9,9,21,0,0,0,0,0,2,2,2,2,2,27,2,26,2,0,22,20,23,3,9,0,0,5,0,25,28,1780.txt
0,0,0,0,0,0,0,0,22,21,13,4,3,3,18,0,0,0,0,0,0,0,0,0,0,10,12,1,9,9,0,0,0,0,0,0,1,1,1,1,1,1,1,1,1,19,1,1,8,7,9,1,1,1,1,1,1,1783.txt
0,0,0,0,0,0,0,0,22,21,13,4,3,3,18,0,0,0,0,0,0,0,0,0,0,10,12,1,9,9,21,0,0,0,0,0,1,1,1,1,1,1,1,1,1,19,1,1,5,5,9,0,0,0,0,5,5,1784.txt
0,0,0,0,0,0,0,0,22,21,0,18,0,0,0,0,0,0,0,0,0,0,0,0,0,10,12,0,9,9,0,0,0,0,0,0,2,5,11,2,2,5,2,26,2,19,4,11,6,8,9,19,0,5,12,6,30,1787.txt
0,0,9,5,0,23,2,16,22,21,0,18,0,0,0,5,29,6,6,0,3,3,27,22,18,22,26,4,23,13,11,21,11,14,24,9,20,11,26,24,24,13,12,21,28,11,29,9,24,6,9,20,0,26,0,8,8,1789.txt
0,0,0,0,0,0,0,0,22,21,13,4,3,3,18,0,0,0,0,0,0,0,0,0,0,10,12,1,9,9,0,0,0,0,0,0,1,1,1,1,1,1,1,1,1,19,1,1,5,5,9,1,1,1,1,5,5,1791.txt
0,0,0,0,0,0,0,0,22,21,13,4,3,3,18,0,0,0,0,0,0,0,0,0,0,10,12,4,9,9,21,0,0,0,0,0,6,5,5,6,0,4,0,6,6,19,5,17,6,6,9,0,0,5,18,6,9,1794.txt
0,0,0,0,0,0,0,0,22,21,13,4,3,3,18,0,0,0,0,0,0,0,0,0,0,10,12,0,9,9,21,0,0,0,0,0,2,5,4,2,2,4,2,26,2,19,4,4,6,4,9,0,0,5,0,4,4,1798.txt
0,0,0,0,17,23,2,16,22,21,0,18,0,0,0,0,0,0,0,0,0,0,0,0,0,30,12,18,9,20,17,0,17,20,21,3,15,18,27,18,23,12,22,17,9,7,18,19,19,18,26,0,0,6,12,20,0,1800.txt
0,0,0,0,0,0,0,0,22,21,13,4,3,3,18,0,0,0,0,0,0,0,0,0,0,10,12,0,9,9,0,0,0,0,0,0,2,5,4,2,2,4,2,26,2,19,4,4,6,6,9,0,0,5,18,6,6,1801.txt
0,0,0,0,0,0,0,0,22,21,13,4,3,3,18,0,0,0,0,0,0,0,0,0,0,10,12,1,9,9,0,0,0,0,0,0,1,1,1,1,1,1,1,1,1,19,1,1,5,5,9,1,1,1,1,5,5,1803.txt
0,0,0,0,0,0,0,0,22,21,20,4,3,3,18,0,0,0,0,0,0,0,0,0,0,10,12,1,9,9,21,0,0,0,0,0,1,1,1,1,1,1,1,1,1,0,1,1,5,5,9,0,0,5,18,5,5,1805.txt
0,0,0,0,0,0,0,0,22,21,0,18,0,0,0,0,0,0,0,0,0,0,0,0,0,10,12,1,9,9,0,0,0,0,0,0,1,1,1,1,1,4,1,1,1,19,1,1,5,5,9,19,0,6,18,5,5,1808.txt
0,0,0,0,0,0,0,0,22,21,0,18,0,0,0,0,0,0,0,0,0,0,0,0,0,10,12,0,9,9,0,0,0,0,0,0,2,5,4,2,2,4,2,26,2,0,4,4,6,4,9,0,0,5,0,4,4,1810.txt
0,0,0,0,0,0,0,0,22,21,13,4,3,3,18,0,0,0,0,0,0,0,0,0,0,10,12,19,9,9,0,0,0,0,0,2,6,2,2,6,0,27,0,6,6,19,22,20,23,3,9,23,4,5,20,25,28,1812.txt
0,0,0,0,0,0,0,0,22,21,13,4,3,3,18,0,0,0,0,0,0,0,0,0,0,10,12,1,9,9,0,0,0,0,0,0,1,1,1,1,1,1,1,1,1,19,1,1,5,5,9,1,1,1,1,5,5,1814.txt
0,0,9,0,0,23,2,16,22,21,0,18,0,0,0,5,0,12,13,0,0,13,9,9,10,10,12,7,9,9,10,0,0,2,2,6,11,2,2,10,0,27,0,9,12,7,22,20,23,3,11,25,10,24,22,25,28,1816.txt
9,18,11,18,19,27,4,4,20,3,2,2,2,2,2,6,5,4,3,6,5,6,5,5,9,11,13,16,16,15,24,28,1,17,25,11,29,15,29,4,9,12,10,10,13,24,26,15,22,21,1,6,5,7,12,22,29,1818.txt
0,0,0,0,0,0,0,0,22,21,0,18,0,0,0,0,0,0,0,0,0,0,0,0,0,10,12,0,9,9,21,0,0,0,0,0,2,5,4,2,2,4,2,26,2,19,4,4,6,6,9,19,0,21,0,6,9,1820.txt
0,0,0,0,0,23,2,16,22,21,0,18,0,0,0,0,0,0,0,0,0,0,0,0,0,10,12,9,9,9,17,18,24,20,21,0,2,6,11,2,2,13,2,26,7,7,13,4,11,22,9,10,11,11,0,21,30,1824.txt
0,0,0,0,0,0,0,0,22,21,13,4,3,3,18,0,0,0,0,0,0,0,0,0,0,10,12,1,9,9,19,0,0,0,0,0,1,1,1,1,1,1,1,1,1,19,1,1,8,7,9,1,1,1,1,1,1,1825.txt
0,0,0,0,0,0,0,0,22,21,13,4,3,3,18,0,0,0,0,0,0,0,0,0,0,10,12,4,9,9,21,0,0,0,0,0,2,12,13,2,2,6,2,26,2,19,17,12,21,17,9,0,0,0,13,23,25,1827.txt
0,27,0,3,0,0,0,0,20,5,3,3,4,4,4,10,24,1,7,24,14,15,14,28,7,27,20,7,28,13,14,21,11,29,12,10,14,18,20,17,23,17,22,14,10,24,18,28,16,18,27,14,26,28,5,15,18,1830.txt
0,0,0,0,0,0,0,0,22,21,13,4,3,3,18,0,0,0,0,0,0,0,0,0,0,10,12,1,9,9,0,0,0,0,0,0,1,1,1,1,1,1,1,1,1,19,1,1,5,5,9,8,11,8,0,5,5,1831.txt
0,0,0,0,0,0,0,0,22,21,13,4,3,3,18,0,0,0,0,0,0,0,0,0,0,10,12,1,9,9,0,0,0,0,0,0,1,1,1,1,1,1,1,1,1,19,1,1,5,5,11,1,1,1,1,5,5,1833.txt
0,0,0,0,0,0,0,0,22,21,13,4,3,3,18,0,0,0,0,0,0,0,0,0,0,10,12,1,9,9,0,0,0,0,0,2,1,1,1,1,1,1,1,1,1,19,1,1,5,5,9,0,0,7,2,5,5,1836.txt
0,0,0,0,0,0,0,0,22,21,13,4,3,3,18,0,0,0,0,0,0,0,0,0,0,10,12,1,9,9,21,0,0,0,0,0,1,1,1,1,1,1,1,1,1,19,1,1,1,1,9,1,1,1,1,1,1,1838.txt
18,11,1,15,28,16,18,9,1,5,3,3,4,4,4,13,6,3,9,19,1,1,18,27,8,5,13,16,5,6,14,16,21,7,12,30,29,15,29,4,1,1,1,1,1,9,6,8,9,21,7,8,15,8,11,22,11,1840.txt
0,0,0,0,0,0,0,0,22,21,13,4,3,3,18,0,0,0,0,0,0,0,0,0,0,10,12,6,9,9,0,0,0,0,0,0,8,5,11,7,2,1,2,26,7,19,13,11,6,4,9,8,11,8,0,4,4,1842.txt
0,0,0,0,0,0,0,0,22,21,13,4,3,3,18,0,0,0,0,0,0,0,0,0,0,10,12,1,9,9,0,0,0,0,0,0,1,1,1,1,1,1,1,1,1,19,1,1,5,5,11,1,1,1,1,5,5,1844.txt
0,0,0,0,0,0,0,0,22,21,13,4,3,3,18,0,0,0,0,0,0,0,0,0,0,10,12,1,9,9,0,0,0,0,0,0,1,1,1,1,1,1,1,1,1,19,1,1,5,5,9,1,1,1,1,5,5,1847.txt
0,0,0,0,0,0,0,0,22,21,13,4,3,3,18,0,0,0,0,0,0,0,0,0,0,10,12,1,9,9,0,0,0,0,0,0,1,1,1,1,1,1,1,1,1,19,1,1,5,5,9,1,1,1,1,5,5,1850.txt
0,0,9,0,0,0,0,0,22,21,13,4,3,3,18,5,0,12,13,0,0,13,9,9,10,10,12,1,9,9,0,0,0,0,0,0,1,1,1,1,1,1,1,1,1,19,1,1,1,1,9,1,1,1,1,1,1,1851.txt
0,0,0,0,0,0,0,0,22,21,13,4,3,3,18,0,0,0,0,0,0,0,0,0,0,10,12,1,9,9,21,0,0,0,0,0,1,1,1,1,1,1,1,1,1,19,1,1,5,5,9,1,1,1,1,5,5,1854.txt
0,0,0,0,0,0,0,0,22,21,13,4,3,3,18,0,0,0,0,0,0,0,0,0,0,10,12,0,9,9,0,0,0,0,0,0,6,14,4,6,19,4,19,6,6,19,4,4,4,9,9,0,0,0,2,9,6,1855.txt
0,0,0,0,0,0,0,0,22,21,13,4,3,3,18,0,0,0,0,0,0,0,0,0,0,10,12,1,9,9,0,0,0,0,0,0,1,1,1,1,1,1,1,1,1,19,1,1,5,5,9,1,1,1,1,5,5,1858.txt
0,0,0,0,0,0,0,0,22,21,13,4,3,3,18,0,0,0,0,0,0,0,0,0,0,10,12,1,9,9,0,0,0,0,0,2,1,1,1,1,1,1,1,1,1,19,1,1,8,7,9,1,1,1,1,1,1,1860.txt
0,0,0,0,0,0,0,0,22,21,13,4,3,3,18,0,0,0,0,0,0,0,0,0,0,10,12,1,9,9,0,0,0,0,0,0,1,1,1,1,1,1,1,1,1,19,1,1,5,5,9,0,0,5,0,5,5,1861.txt
0,11,0,15,0,0,0,0,22,1,6,6,6,6,6,30,13,1,1,20,1,1,1,13,1,1,7,0,11,10,7,1,1,9,8,1,2,5,4,2,2,4,2,26,2,9,4,4,6,4,5,0,0,5,18,4,4,1863.txt
0,0,0,0,0,0,0,0,22,21,13,4,3,3,18,0,0,0,0,0,0,0,0,0,0,10,12,1,9,9,0,0,0,0,0,0,1,1,1,1,1,1,1,1,1,19,1,1,1,1,9,0,0,5,0,7,7,1865.txt
0,0,0,0,0,0,0,0,22,21,13,4,3,3,18,0,0,0,0,0,0,0,0,0,0,10,12,1,9,9,21,0,0,0,0,0,1,1,1,1,1,1,1,1,1,19,1,1,1,1,9,1,1,1,1,1,1,1867.txt
0,0,0,0,0,0,0,0,1,21,13,4,3,3,18,0,0,0,0,0,0,0,0,0,0,10,12,1,9,9,0,0,0,0,0,0,1,1,1,1,1,1,1,1,1,19,1,1,5,5,9,1,1,1,1,5,5,1870.txt
0,0,0,0,0,0,0,0,22,21,13,4,3,3,18,0,0,0,0,0,0,0,0,0,0,10,12,1,9,9,0,0,0,0,0,0,1,1,1,1,1,1,1,1,1,19,1,1,5,5,9,0,0,5,0,5,5,1872.txt
4,19,15,3,15,0,0,0,9,5,3,3,4,4,4,3,3,24,7,3,16,15,17,28,18,22,26,4,23,13,1,12,10,28,1,9,20,29,7,5,12,4,12,21,5,11,30,9,4,22,21,0,0,0,0,8,6,1874.txt
0,0,0,0,0,0,0,0,22,21,13,4,3,3,18,0,0,0,0,0,0,0,0,0,0,10,12,1,9,9,0,0,0,0,0,0,1,1,1,1,1,1,1,1,1,19,1,1,5,5,9,1,1,1,1,5,5,1876.txt
0,0,0,0,0,0,0,0,22,21,13,4,3,3,18,0,0,0,0,0,0,0,0,0,0,10,12,1,9,9,0,0,0,0,0,0,1,1,1,1,1,1,1,1,1,19,1,1,5,5,9,1,1,1,1,5,5,1879.txt
0,0,0,0,0,0,0,0,22,21,13,4,3,3,18,0,0,0,0,0,0,0,0,0,0,10,12,1,9,9,0,0,0,0,0,0,1,1,1,1,1,4,1,1,1,19,1,1,8,7,9,0,0,7,12,1,1,1880.txt
0,0,0,0,0,0,0,0,22,21,0,18,0,0,0,0,0,0,0,0,0,0,0,0,0,10,12,0,9,9,0,0,0,0,0,0,2,5,4,2,2,4,2,26,2,0,4,4,6,6,9,0,0,5,0,6,6,1884.txt
0,0,0,0,0,0,0,0,22,21,13,4,3,3,18,0,0,0,0,0,0,0,0,0,0,10,12,1,9,9,21,0,0,0,0,0,1,1,1,1,1,1,1,1,1,19,1,1,8,7,9,8,30,8,0,1,1,1885.txt
0,0,0,0,0,0,0,0,22,21,13,4,3,3,18,0,0,0,0,0,0,0,0,0,0,10,12,1,9,9,0,0,0,0,0,0,1,1,1,1,1,1,1,1,1,19,1,1,5,5,9,1,1,1,1,5,5,1887.txt
0,0,0,0,0,23,23,16,22,21,13,4,3,3,18,0,0,0,0,0,0,0,0,0,0,10,12,30,9,9,21,20,25,0,0,0,6,4,22,6,6,13,6,6,6,19,25,7,10,8,9,8,26,8,0,6,30,1890.txt
0,0,0,0,0,0,0,0,22,21,13,4,3,3,18,0,0,0,0,0,0,0,0,0,0,10,12,1,9,9,0,0,0,0,0,0,1,1,1,1,1,1,1,1,1,19,1,1,5,5,9,1,1,1,1,5,5,1892.txt
0,0,0,0,0,0,0,0,22,21,13,4,3,3,18,0,0,0,0,0,0,0,0,0,0,10,12,1,9,9,0,0,0,0,0,0,1,1,1,1,1,1,1,1,1,19,1,1,5,5,9,1,1,1,1,5,5,1894.txt
0,0,0,0,0,0,0,0,22,21,13,4,3,3,18,0,0,0,0,0,0,0,0,0,0,10,12,0,9,9,21,0,0,0,0,0,2,12,13,2,2,8,2,26,7,19,18,22,21,18,9,19,0,5,12,24,23,1898.txt
20,11,1,21,28,23,29,13,1,1,22,6,6,23,6,30,6,1,1,20,6,15,6,30,6,5,7,9,5,6,14,1,8,7,12,1,2,12,14,2,16,6,18,24,7,24,19,12,17,19,27,9,11,10,7,24,23,1900.txt
0,0,0,0,0,0,0,0,22,21,13,4,3,3,18,0,0,0,0,0,0,0,0,0,0,10,12,1,9,9,0,0,0,0,0,0,1,1,1,1,1,1,1,1,1,19,1,1,5,5,9,1,1,1,1,5,5,1901.txt
0,0,0,0,0,0,0,0,22,21,13,4,3,3,18,0,0,0,0,0,0,0,0,0,0,10,12,1,9,9,0,0,0,0,0,0,1,1,1,1,1,1,1,1,1,19,1,1,5,5,11,1,1,1,1,5,5,1903.txt
0,0,0,0,0,0,0,0,22,21,13,4,3,3,18,0,0,0,0,0,0,0,0,0,0,10,12,6,9,9,21,0,0,0,0,0,2,2,2,2,2,27,2,26,2,19,22,20,23,3,9,10,11,11,14,25,28,1906.txt
0,0,0,0,0,0,0,0,22,21,13,4,3,3,18,0,0,0,0,0,0,0,0,0,0,10,12,0,9,9,21,0,0,0,0,0,14,5,4,17,23,1,22,17,9,19,4,4,6,4,9,0,0,5,18,4,4,1908.txt
0,0,0,0,0,0,0,0,22,21,13,4,3,3,18,0,0,0,0,0,0,0,0,0,0,10,12,18,9,9,21,0,0,0,0,0,6,5,5,6,0,4,0,6,6,19,5,17,6,6,9,19,0,5,0,6,9,1911.txt
29,27,25,21,2,16,18,6,2,5,3,3,4,4,8,9,9,9,9,10,24,3,24,1,17,12,19,10,10,11,14,11,15,29,12,30,14,21,19,29,21,28,22,17,19,8,23,27,30,28,7,30,3,30,7,30,13,1913.txt
0,0,0,0,0,0,0,0,22,21,13,4,3,3,18,0,0,0,0,0,0,0,0,0,0,10,12,0,9,9,0,0,0,0,0,0,2,5,4,2,2,5,2,26,7,19,13,11,6,8,9,19,0,5,0,6,30,1914.txt
18,18,25,15,2,27,4,4,7,3,2,2,2,2,2,9,9,3,3,10,1,1,18,27,8,12,13,16,3,3,3,4,4,3,3,4,10,15,12,11,1,1,1,1,1,5,6,8,9,21,5,1,1,1,1,22,11,1916.txt
20,11,1,15,28,0,0,0,1,5,3,3,4,4,4,13,6,3,7,19,1,1,1,27,1,5,7,0,5,6,7,17,10,7,8,1,2,2,2,2,2,1,2,26,2,9,22,20,23,3,1,0,0,5,2,25,28,1919.txt
0,11,0,15,0,0,0,0,1,3,2,2,2,2,2,13,6,3,3,19,1,1,1,27,1,5,3,1,5,6,7,4,4,7,8,4,1,1,1,1,1,1,1,1,1,9,1,1,5,5,1,0,0,5,0,5,5,1921.txt
0,0,0,0,0,0,0,0,22,21,13,4,3,3,18,0,0,0,0,0,0,0,0,0,0,10,12,1,9,9,0,0,0,0,0,0,1,1,1,1,1,1,1,1,1,19,1,1,5,5,9,1,1,1,1,5,5,1923.txt
0,0,0,0,0,0,0,0,22,21,13,4,3,3,18,0,0,0,0,0,0,0,0,0,0,10,12,18,9,9,0,0,0,0,0,0,6,28,24,6,0,24,0,6,6,19,18,18,16,18,9,22,0,26,0,29,17,1926.txt
0,0,0,0,0,0,0,0,22,21,13,4,3,3,18,0,0,0,0,0,0,0,0,0,0,10,12,1,9,9,0,0,0,0,0,0,1,1,1,1,1,1,1,1,1,19,1,1,5,5,9,19,0,5,0,5,5,1928.txt
0,0,0,0,0,0,0,0,22,21,13,4,3,3,18,0,0,0,0,0,0,0,0,0,0,10,12,1,9,9,0,0,0,0,0,0,1,1,1,1,1,1,1,1,1,19,1,1,5,5,9,1,1,1,1,5,5,1930.txt
0,0,0,0,0,0,0,0,22,21,13,4,3,3,18,0,0,0,0,0,0,0,0,0,0,10,12,2,9,9,21,0,0,0,0,0,2,5,4,2,2,1,2,26,2,19,4,4,6,4,9,8,11,8,0,4,4,1932.txt
0,0,0,0,0,0,0,0,22,21,13,4,3,3,18,0,0,0,0,0,0,0,0,0,0,10,12,1,9,9,21,0,0,0,0,0,1,1,1,1,1,1,1,1,1,19,1,1,1,1,9,19,0,7,0,1,1,1934.txt
0,0,0,0,0,0,0,0,22,21,13,4,3,3,18,0,0,0,0,0,0,0,0,0,0,10,12,1,9,9,21,0,0,0,0,0,1,1,1,1,1,4,1,1,1,19,1,1,5,5,9,0,0,26,0,5,5,1937.txt
0,0,0,0,0,0,0,0,22,21,13,4,3,3,18,0,0,0,0,0,0,0,0,0,0,10,12,1,9,9,18,0,0,0,0,0,1,1,1,1,1,1,1,1,1,19,1,1,5,5,9,1,1,1,1,5,5,1938.txt
0,0,0,0,0,0,0,0,22,21,13,4,3,3,18,0,0,0,0,0,0,0,0,0,0,10,12,26,9,9,21,0,0,0,0,0,2,5,11,2,2,13,2,26,2,19,4,4,6,8,9,8,11,8,0,6,30,1941.txt
0,0,0,0,0,0,0,0,22,21,13,4,3,3,18,0,0,0,0,0,0,0,0,0,0,10,12,1,9,9,0,0,0,0,0,0,1,1,1,1,1,1,1,1,1,19,1,1,5,5,9,0,0,5,18,5,5,1942.txt
0,0,0,0,0,0,0,0,22,21,13,4,3,3,18,0,0,0,0,0,0,0,0,0,0,10,12,1,9,9,0,0,0,0,0,0,1,1,1,1,1,1,1,1,1,19,1,1,5,5,9,1,1,1,1,5,5,1944.txt
0,0,0,0,0,0,0,0,22,21,13,4,3,3,18,0,0,0,0,0,0,0,0,0,0,10,12,11,9,9,0,0,0,0,0,0,12,2,2,14,2,27,2,26,17,19,22,20,23,3,9,8,11,8,19,25,28,1947.txt
0,0,0,0,0,0,0,0,22,21,13,4,3,3,18,0,0,0,0,0,0,0,0,0,0,10,12,4,9,9,0,0,0,0,0,0,6,4,5,6,0,4,0,6,6,19,5,17,25,6,9,20,0,7,20,6,9,1948.txt
0,0,0,0,0,0,0,0,22,21,13,4,3,3,18,0,0,0,0,0,0,0,0,0,0,10,12,0,9,9,21,0,0,0,0,0,2,5,11,2,2,5,2,26,7,19,4,4,6,4,9,19,0,5,18,4,4,1951.txt
0,0,0,0,0,0,0,0,22,21,13,4,3,3,18,0,0,0,0,0,0,0,0,0,0,10,12,10,9,9,21,0,0,0,0,0,30,9,11,14,3,5,18,3,7,17,13,11,7,8,9,8,11,8,0,6,30,1952.txt
0,0,0,0,0,0,0,0,22,21,13,4,3,3,18,0,0,0,0,0,0,0,0,0,0,10,12,1,9,9,21,0,0,0,0,0,1,1,1,1,1,1,1,1,1,19,1,1,8,7,9,8,15,8,18,1,1,1954.txt
0,0,0,0,0,0,0,0,22,21,13,4,3,3,18,0,0,0,0,0,0,0,0,0,0,10,12,1,9,9,0,0,0,0,0,2,1,1,1,1,1,1,1,1,1,19,1,1,5,5,9,1,1,1,1,5,5,1956.txt
0,0,0,0,0,0,0,0,22,21,13,4,3,3,18,0,0,0,0,0,0,0,0,0,0,10,12,11,9,9,21,0,0,0,0,0,6,4,5,6,0,5,0,6,6,19,5,17,25,8,9,8,11,8,0,6,30,1959.txt
18,29,11,21,2,16,18,6,2,5,3,3,4,4,4,9,9,1,7,10,16,5,17,26,27,12,13,16,10,11,12,11,15,16,15,30,29,15,29,4,1,26,1,1,1,8,6,8,9,21,16,8,3,8,11,22,11,1961.txt
0,0,0,0,0,0,0,0,22,21,0,18,0,0,0,0,0,0,0,0,0,0,0,0,0,10,12,11,9,9,21,0,0,0,0,0,6,4,5,6,0,13,0,6,6,19,5,17,10,22,9,8,30,8,0,6,24,1964.txt
0,11,0,15,0,0,0,0,1,1,6,6,6,6,6,13,13,3,14,19,1,1,1,27,1,1,7,9,11,10,15,17,10,11,13,12,2,28,24,2,2,1,2,26,7,9,23,12,15,25,25,14,11,28,24,23,15,1965.txt
0,0,0,0,0,0,0,0,22,21,13,4,3,3,18,0,0,0,0,0,0,0,0,0,0,10,12,0,9,9,0,0,0,0,0,0,2,5,4,2,2,1,2,26,2,19,4,4,6,4,9,0,0,5,0,4,4,1970.txt
0,0,0,15,0,0,0,0,22,21,13,4,3,3,18,0,0,0,0,0,1,1,1,27,1,5,3,1,3,3,3,4,4,3,3,4,1,1,1,1,1,1,1,1,1,5,1,1,5,5,9,1,1,1,1,5,5,1973.txt
0,0,0,0,0,0,0,0,22,21,13,4,3,3,18,0,0,0,0,0,0,0,0,0,0,10,12,0,9,9,21,0,0,0,0,0,2,2,2,2,2,27,2,26,2,19,22,20,23,3,9,19,0,5,12,25,28,1974.txt
0,0,0,0,0,0,0,0,22,21,13,4,3,3,18,0,0,0,0,0,0,0,0,0,0,10,12,1,9,9,0,0,0,0,0,0,1,1,1,1,1,1,1,1,1,19,1,1,5,5,9,1,1,1,1,5,5,1976.txt
0,0,0,0,0,0,0,0,22,21,13,4,3,3,18,0,0,0,0,0,0,0,0,0,0,10,12,0,9,9,0,0,0,0,0,0,2,5,4,2,2,5,2,26,2,19,4,4,6,4,11,19,0,5,3,4,4,1979.txt
0,0,0,0,0,0,0,0,22,21,13,4,3,3,18,0,0,0,0,0,0,0,0,0,0,10,12,1,9,9,0,0,0,0,0,0,1,1,1,1,1,1,1,1,1,19,1,1,5,5,9,0,0,5,0,5,5,1981.txt
0,0,0,0,17,23,2,16,22,21,0,18,0,0,0,0,0,0,0,0,0,0,0,0,0,30,12,23,9,20,10,0,17,2,2,0,6,17,27,6,0,12,0,6,6,7,19,18,29,19,26,8,15,8,18,20,18,1983.txt
18,18,11,18,2,7,18,4,2,5,3,3,4,4,4,6,5,4,7,6,15,6,15,5,9,11,3,1,10,11,12,11,1,17,15,15,1,1,1,1,1,26,1,1,1,8,1,1,5,5,8,8,15,8,0,5,5,1984.txt
20,11,1,21,28,8,18,6,1,5,3,3,4,4,4,30,6,1,7,20,14,3,14,22,7,5,22,11,5,6,11,16,15,7,24,30,30,2,2,14,8,27,8,27,7,9,22,20,23,3,5,10,9,11,7,25,28,1986.txt
0,0,0,15,0,0,0,0,1,21,13,4,3,3,18,0,0,0,0,0,6,15,6,28,6,5,7,0,5,6,7,1,10,7,8,1,2,2,2,2,2,27,2,26,2,8,22,20,23,3,9,0,0,5,18,25,28,1989.txt
0,0,0,0,0,0,0,0,22,21,13,4,3,3,18,0,0,0,0,0,0,0,0,0,0,10,12,1,9,9,21,0,0,0,0,0,1,1,1,1,1,1,1,1,1,19,1,1,5,5,9,1,1,1,1,5,5,1991.txt
0,0,0,0,12,23,2,16,3,4,13,4,3,3,18,2,2,2,22,7,2,30,2,2,2,6,6,11,13,12,10,3,3,2,2,5,30,6,11,13,3,5,18,3,7,29,13,11,7,4,2,8,15,8,0,4,4,1992.txt
0,0,0,0,0,0,0,0,22,21,13,4,3,3,18,0,0,0,0,0,0,0,0,0,0,10,12,1,9,9,0,0,0,0,0,0,1,1,1,1,1,1,1,1,1,19,1,1,5,5,9,1,1,1,1,5,5,1995.txt
0,0,0,0,0,0,0,0,22,21,13,4,3,3,18,0,0,0,0,0,0,0,0,0,0,10,12,1,9,9,21,0,0,0,0,0,1,1,1,1,1,1,1,1,1,19,1,1,5,5,9,1,1,1,1,5,5,1997.txt
0,0,0,0,0,0,0,0,22,21,20,4,3,3,18,0,0,0,0,0,0,0,0,0,0,10,12,0,9,9,0,0,0,0,0,0,2,5,4,2,2,4,2,26,2,0,4,4,6,4,9,0,0,5,0,4,4,1999.txt
18,18,11,15,19,0,0,0,7,3,2,2,2,2,2,17,3,4,3,17,1,1,1,5,1,11,3,1,3,3,3,4,4,3,3,4,1,1,1,1,1,1,1,1,1,5,1,1,5,5,1,1,1,1,1,5,5,2001.txt
0,0,9,0,0,0,0,0,22,21,13,4,3,3,18,5,29,6,6,0,0,13,9,9,10,10,12,0,9,9,21,0,0,0,0,0,6,2,2,6,0,27,0,6,6,18,22,20,23,3,9,22,0,21,0,25,28,2005.txt
0,0,0,0,0,0,0,0,22,21,13,4,3,3,18,0,0,0,0,0,0,0,0,0,0,10,12,0,9,9,21,0,0,0,0,0,6,5,4,6,0,4,0,6,6,0,4,4,6,4,9,0,0,0,18,4,4,2007.txt
0,0,0,0,0,23,2,16,22,21,13,4,3,3,18,0,0,0,0,0,0,0,0,0,0,10,12,1,9,9,10,0,0,20,21,0,1,1,1,1,1,5,1,1,1,7,1,1,12,30,9,10,11,11,7,10,10,2008.txt
29,19,15,30,15,29,30,15,19,1,6,17,21,6,24,21,21,8,1,14,1,1,1,13,1,21,8,20,22,21,14,1,8,6,12,14,2,12,14,2,8,6,8,27,2,10,23,12,28,25,17,9,20,10,5,23,25,2012.txt
18,29,25,15,20,29,26,20,30,26,18,20,27,23,29,10,26,1,3,22,26,28,18,14,8,27,13,16,28,13,15,17,30,26,13,21,29,15,29,4,1,1,1,1,1,23,6,8,9,21,8,8,25,8,11,22,11,2015.txt
0,0,0,0,0,0,0,0,22,21,13,4,3,3,18,0,0,0,0,0,0,0,0,0,0,10,12,1,9,9,21,0,0,0,0,0,1,1,1,1,1,1,1,1,1,19,1,1,5,5,9,19,0,5,0,5,5,2017.txt
0,0,0,0,0,0,0,0,22,21,13,4,3,3,18,0,0,0,0,0,0,0,0,0,0,10,12,1,9,9,0,0,0,0,0,0,1,1,1,1,1,1,1,1,1,19,1,1,5,5,9,1,1,1,1,5,5,2020.txt
0,0,0,0,0,0,0,0,22,21,13,4,3,3,18,0,0,0,0,0,0,0,0,0,0,10,12,1,9,9,0,0,0,0,0,0,1,1,1,1,1,1,1,1,1,19,1,1,5,5,9,1,1,1,1,5,5,2022.txt
0,0,0,0,0,0,0,0,22,21,13,4,3,3,18,0,0,0,0,0,0,0,0,0,0,10,12,1,9,9,0,0,0,0,0,0,1,1,1,1,1,1,1,1,1,19,1,1,5,5,9,0,0,5,0,5,5,2024.txt
0,0,0,0,0,0,0,0,22,21,13,4,3,3,18,0,0,0,0,0,0,0,0,0,0,10,12,1,9,9,21,0,0,0,0,0,1,1,1,1,1,1,1,1,1,19,1,1,1,1,9,8,15,8,0,7,7,2026.txt
0,0,0,0,0,0,0,0,22,21,13,4,3,3,18,0,0,0,0,0,0,0,0,0,0,10,12,0,9,9,0,0,0,0,0,0,2,5,4,2,2,4,2,26,2,19,4,4,6,4,9,0,0,5,0,4,4,2029.txt
0,0,0,0,0,23,2,16,22,21,13,4,3,3,18,0,0,0,0,0,0,0,0,0,0,10,12,18,9,9,0,0,0,0,0,3,13,0,0,16,23,0,12,21,20,0,18,18,19,18,9,0,0,20,12,0,0,2031.txt
0,0,0,0,0,0,0,0,22,21,13,4,3,3,18,0,0,0,0,0,0,0,0,0,0,10,12,1,9,9,19,0,0,0,0,0,1,1,1,1,1,1,1,1,1,19,1,1,5,5,9,1,1,1,1,5,5,2032.txt
0,0,0,0,0,0,0,0,22,21,13,4,3,3,18,0,0,0,0,0,0,0,0,0,0,10,12,13,9,9,0,0,0,0,0,0,2,5,4,2,2,1,2,26,2,19,4,4,6,4,9,8,11,8,0,4,4,2034.txt
0,0,0,0,0,0,0,0,22,21,13,4,3,3,18,0,0,0,0,0,0,0,0,0,0,10,12,1,9,9,0,0,0,0,0,0,1,1,1,1,1,1,1,1,1,19,1,1,8,7,9,1,1,1,1,1,1,2037.txt
0,0,0,0,0,0,0,0,22,21,0,18,0,0,0,0,0,0,0,0,0,0,0,0,0,10,12,7,9,9,21,0,0,0,0,2,2,5,11,2,2,4,2,26,7,19,4,4,6,22,9,10,11,11,5,6,24,2038.txt
0,0,0,1,0,0,0,0,22,21,0,18,0,0,0,0,0,0,0,0,1,1,1,26,1,21,7,0,22,21,7,1,10,6,8,1,2,5,4,2,2,4,2,26,2,10,4,4,6,4,9,19,0,5,0,4,4,2040.txt
0,0,0,15,0,0,0,0,22,21,13,4,3,3,18,0,0,0,0,0,1,1,1,27,1,1,3,1,3,3,3,4,4,3,3,4,1,1,1,1,1,1,1,1,1,5,1,1,5,5,9,1,1,1,1,5,5,2043.txt
0,0,0,0,0,0,0,0,22,21,13,4,3,3,18,0,0,0,0,0,0,0,0,0,0,10,12,1,9,9,21,0,0,0,0,0,1,1,1,1,1,1,1,1,1,19,1,1,5,5,9,1,1,1,1,5,5,2045.txt
0,0,0,0,0,0,0,0,22,21,13,4,3,3,18,0,0,0,0,0,0,0,0,0,0,10,12,9,9,9,21,0,0,0,0,0,6,5,5,6,0,13,0,6,6,19,5,17,6,4,9,8,11,8,0,4,4,2049.txt
0,0,0,0,0,0,0,0,22,21,13,4,3,3,18,0,0,0,0,0,0,0,0,0,0,10,12,1,9,9,21,0,0,0,0,0,1,1,1,1,1,1,1,1,1,19,1,1,5,5,9,8,11,8,0,5,5,2052.txt
0,0,0,0,0,0,0,0,22,21,13,4,3,3,18,0,0,0,0,0,0,0,0,0,0,10,12,1,9,9,0,0,0,0,0,0,1,1,1,1,1,1,1,1,1,19,1,1,5,5,9,0,0,5,18,5,5,2053.txt
0,0,0,0,0,0,0,0,22,21,13,4,3,3,18,0,0,0,0,0,0,0,0,0,0,10,12,1,9,9,0,0,0,0,0,0,1,1,1,1,1,1,1,1,1,19,1,1,5,5,9,1,1,1,1,5,5,2055.txt
0,0,0,0,0,0,0,0,22,21,13,4,3,3,18,0,0,0,0,0,0,0,0,0,0,10,12,1,9,9,21,0,0,0,0,0,1,1,1,1,1,1,1,1,1,19,1,1,5,5,9,8,11,8,0,5,5,2057.txt
0,0,0,0,0,0,0,0,22,21,13,4,3,3,18,0,0,0,0,0,0,0,0,0,0,10,12,1,9,9,0,0,0,0,0,0,1,1,1,1,1,1,1,1,1,19,1,1,5,5,9,1,1,1,1,5,5,2060.txt
0,0,0,0,0,0,0,0,22,21,13,4,3,3,18,0,0,0,0,0,0,0,0,0,0,10,12,1,9,9,21,0,0,0,0,0,1,1,1,1,1,1,1,1,1,19,1,1,5,5,9,8,11,8,19,5,5,2062.txt
0,0,0,0,0,23,2,16,22,21,13,4,3,3,18,0,0,0,0,0,0,0,0,0,0,10,12,9,9,9,0,0,0,0,0,0,2,28,24,2,8,6,8,27,7,19,14,12,21,14,9,29,11,28,7,23,15,2066.txt
0,0,9,0,0,0,0,0,22,21,13,4,3,3,18,5,0,6,6,0,0,13,9,9,10,10,12,4,9,9,0,0,0,0,0,0,13,29,7,16,23,4,12,17,9,19,5,17,24,6,9,0,0,26,0,27,9,2067.txt
0,0,0,0,0,0,0,0,22,21,13,4,3,3,18,0,0,0,0,0,0,0,0,0,0,10,12,9,9,9,21,0,0,0,0,0,3,6,11,3,2,10,2,26,27,19,13,11,7,4,9,8,11,8,0,4,4,2069.txt
0,0,0,0,0,0,0,0,22,21,13,4,3,3,18,0,0,0,0,0,0,0,0,0,0,10,12,4,9,9,21,0,0,0,0,0,6,5,4,6,0,4,0,6,6,19,4,4,6,6,9,6,5,5,0,6,30,2072.txt
0,0,0,0,0,0,0,0,22,21,13,4,3,3,18,0,0,0,0,0,0,0,0,0,0,10,12,1,9,9,21,0,0,0,0,0,1,1,1,1,1,1,1,1,1,19,1,1,12,12,9,29,11,28,24,7,7,2074.txt
0,0,0,0,0,0,0,0,22,21,0,18,0,0,0,0,29,0,0,0,0,0,0,0,0,10,12,1,9,9,0,0,0,0,0,2,1,1,1,1,1,12,1,1,1,18,1,1,5,5,9,11,15,12,6,5,5,2078.txt
0,0,0,0,0,0,0,0,22,21,13,4,3,3,18,0,0,0,0,0,0,0,0,0,0,10,12,1,9,9,19,0,0,0,0,0,1,1,1,1,1,1,1,1,1,19,1,1,5,5,9,0,0,5,0,5,5,2080.txt
0,0,0,0,0,0,0,0,22,21,13,4,3,3,18,0,0,0,0,0,0,0,0,0,0,10,12,1,9,9,21,0,0,0,0,0,1,1,1,1,1,1,1,1,1,19,1,1,5,5,9,19,0,5,0,5,5,2083.txt
0,0,0,0,0,0,0,0,22,21,13,4,3,3,18,0,0,0,0,0,0,0,0,0,0,10,12,1,9,9,19,0,0,0,0,0,1,1,1,1,1,1,1,1,1,19,1,1,1,1,9,8,19,8,0,1,1,2085.txt
0,0,0,0,0,23,2,16,22,21,13,4,3,3,18,0,0,0,0,0,0,0,0,0,0,10,12,9,9,9,21,0,0,0,0,0,2,5,4,2,8,4,8,27,2,19,4,4,6,22,9,8,15,8,0,6,9,2087.txt
0,0,0,0,0,0,0,0,22,21,13,4,3,3,18,0,0,0,0,0,0,0,0,0,0,10,12,7,9,9,0,0,0,0,0,0,6,28,24,6,0,21,0,6,6,19,18,28,21,18,9,8,30,8,0,0,17,2090.txt
0,0,0,0,0,0,0,0,22,21,13,4,3,3,18,0,0,0,0,0,0,0,0,0,0,10,12,1,9,9,21,0,0,0,0,0,1,1,1,1,1,1,1,1,1,19,1,1,12,12,9,8,11,8,0,7,7,2092.txt
20,19,25,3,20,0,0,0,19,6,22,17,21,12,24,22,27,1,15,22,19,5,21,26,17,27,15,30,30,25,12,9,20,15,15,12,15,18,0,18,15,17,17,17,10,15,18,28,19,18,16,30,20,28,5,15,17,2093.txt
0,0,0,15,0,0,0,28,26,21,0,18,0,0,0,0,0,0,0,0,1,1,1,12,1,1,9,20,11,10,27,16,20,11,29,12,9,23,19,9,7,23,7,7,22,16,23,27,27,28,9,29,24,30,27,24,23,2096.txt
0,0,0,0,0,0,0,0,22,21,13,4,3,3,18,0,0,0,0,0,0,0,0,0,0,10,12,1,9,9,21,0,0,0,0,0,1,1,1,1,1,1,1,1,1,19,1,1,5,5,9,0,0,5,18,5,5,2098.txt
