0,1,2,3,4,5,6,7,8,9,10,11,12,13,14,15,16,17,18,19,20,21,22,23,24,25,26,27,28,29,30,31,32,33,34,35,36,37,38,39,40,41,42,43,44,45,46,47,48,49,filename
0,0,0,0,0,0,13,0,0,16,0,11,17,16,19,17,13,8,0,8,8,8,8,23,25,18,0,0,0,24,11,30,16,30,6,4,4,6,0,0,8,15,20,13,9,3,5,3,2,2,2.txt
5,29,1,22,22,13,3,3,28,6,20,19,7,23,4,12,20,20,26,10,10,10,13,9,12,21,25,20,13,13,7,5,4,11,18,15,30,4,9,17,16,26,14,20,6,29,18,10,17,23,5.txt
0,0,0,0,0,0,13,0,0,16,0,11,17,16,19,17,13,25,0,29,8,8,8,23,25,18,0,0,3,24,22,26,30,0,6,4,4,6,0,0,23,23,20,0,0,27,12,5,5,11,9.txt
0,0,0,0,0,0,13,0,0,16,25,11,17,16,19,17,13,8,9,8,8,8,8,23,25,29,30,5,30,5,9,4,16,30,6,4,4,18,8,9,5,17,20,4,4,19,5,3,2,2,12.txt
0,0,0,0,0,0,13,0,0,16,0,11,17,16,19,17,13,8,0,8,8,8,8,23,25,18,0,0,0,24,22,26,30,0,6,4,4,18,8,9,23,22,20,24,30,3,12,11,5,5,14.txt
0,0,0,0,0,0,13,0,0,0,0,11,0,0,19,0,0,8,0,8,8,8,8,21,23,18,0,0,0,24,8,4,7,13,6,4,4,6,0,0,24,15,20,13,12,21,10,6,0,0,16.txt
0,0,0,0,0,0,13,0,0,16,0,11,17,16,19,17,13,8,0,8,8,8,8,23,25,18,0,0,0,24,9,4,16,30,6,4,4,6,0,0,5,15,20,4,4,19,5,3,2,2,17.txt
0,0,0,0,0,0,13,0,0,16,0,11,17,16,19,17,13,8,0,8,8,8,8,23,25,18,0,0,0,24,9,26,7,13,6,4,4,6,0,0,5,15,20,13,9,3,5,3,2,2,21.txt
0,0,0,0,0,0,13,0,0,16,0,11,17,16,19,17,13,8,0,8,8,8,8,23,25,18,0,0,0,24,9,26,16,30,6,4,4,6,24,23,5,15,20,13,12,3,5,3,2,2,23.txt
0,0,0,0,0,0,13,0,0,16,0,11,17,16,19,17,13,8,0,8,8,8,8,23,25,18,0,0,0,24,9,26,6,30,6,4,4,17,15,14,14,15,20,13,12,3,13,17,10,18,24.txt
0,0,0,0,0,0,13,0,0,16,0,11,17,16,19,17,13,8,0,8,8,8,8,23,25,18,0,0,0,24,22,30,30,0,6,4,4,6,0,0,23,0,20,0,0,5,12,11,5,4,26.txt
0,0,0,0,0,0,13,0,0,16,0,11,17,16,19,17,13,8,0,8,8,8,8,23,25,18,0,0,0,24,22,4,30,0,6,4,4,6,0,0,23,22,20,24,30,19,5,3,2,2,28.txt
0,0,0,0,0,0,13,0,0,16,0,0,17,16,19,18,11,8,0,8,8,8,8,23,25,0,0,0,0,24,11,4,8,13,19,4,4,9,0,0,14,15,4,13,9,2,11,26,13,9,30.txt
30,9,1,28,4,13,3,7,6,7,20,23,24,8,4,19,5,20,11,27,16,30,27,4,7,10,9,1,29,12,21,15,27,29,14,12,30,8,7,12,12,11,10,11,18,22,22,20,25,30,32.txt
0,0,0,0,0,0,13,0,0,16,0,11,17,16,19,17,13,8,0,8,8,8,8,23,25,18,0,0,0,24,9,26,16,30,6,4,4,6,0,0,24,15,20,4,4,3,11,23,14,9,34.txt
0,0,0,0,0,0,13,0,0,16,0,11,17,16,19,17,13,8,0,8,8,8,8,23,25,18,0,0,0,24,22,26,30,0,6,4,4,6,0,0,23,22,20,24,30,3,5,3,2,2,36.txt
0,0,0,0,0,0,13,0,0,16,0,11,17,16,19,17,13,8,0,8,8,8,8,23,25,18,0,0,0,24,22,26,30,0,6,4,4,6,0,0,23,22,20,24,30,3,2,14,4,10,40.txt
0,0,0,0,0,0,13,0,0,16,0,2,17,16,19,17,13,8,0,8,8,8,8,23,25,18,0,0,0,24,11,4,16,30,6,4,4,6,0,0,8,15,20,13,9,19,10,0,0,0,41.txt
0,0,0,0,0,0,13,0,0,16,0,11,17,16,19,17,13,8,0,8,8,8,8,23,25,18,0,0,0,24,22,26,30,0,6,4,4,18,8,9,23,22,20,24,30,3,5,3,2,2,49.txt
0,0,0,0,0,0,13,0,0,16,0,11,17,16,19,17,13,8,0,8,8,8,8,23,25,18,0,0,0,24,9,26,16,30,6,4,4,6,0,0,5,17,20,13,11,3,5,3,2,2,53.txt
0,0,0,0,0,0,13,0,0,16,0,11,17,16,19,17,13,8,0,8,8,8,8,23,25,18,0,0,0,24,22,30,30,0,6,4,4,6,0,0,23,22,20,24,30,3,5,3,2,2,55.txt
0,0,0,0,0,0,0,0,0,16,10,11,17,16,19,17,13,1,6,1,8,8,8,23,25,1,1,11,23,11,4,8,10,8,6,4,4,22,10,14,23,22,20,24,30,8,12,11,5,11,57.txt
0,0,0,0,0,0,13,0,0,16,8,11,17,16,19,17,13,4,6,1,8,8,8,23,25,24,11,25,15,28,6,5,3,10,19,4,4,18,8,9,23,22,20,24,30,7,4,11,30,24,60.txt
0,0,1,28,18,13,3,4,6,5,0,20,3,5,14,19,1,20,0,19,11,11,4,1,28,18,4,4,0,4,4,8,13,8,6,12,30,6,0,0,23,22,20,24,30,17,12,30,5,11,61.txt
0,0,0,0,0,0,13,0,0,16,0,11,17,16,19,17,13,8,6,8,8,8,8,23,25,12,12,13,20,22,22,26,30,0,6,4,4,18,8,9,23,22,20,24,30,3,2,11,4,5,63.txt
0,0,16,29,10,19,1,4,7,11,0,20,3,1,6,19,1,1,0,1,22,26,11,4,27,18,14,17,0,20,4,8,22,8,1,7,13,6,0,0,28,11,20,14,25,22,11,27,10,9,65.txt
30,29,1,1,10,13,3,17,27,5,20,20,7,23,4,4,5,20,11,13,10,10,30,4,12,13,20,16,30,8,7,14,1,11,11,7,14,4,9,17,25,11,24,14,15,18,26,7,27,23,68.txt
0,0,0,0,0,0,13,0,0,16,0,11,17,16,19,17,13,8,0,8,8,8,8,23,25,18,0,0,0,24,22,26,30,0,6,4,4,6,0,0,23,22,20,24,30,5,5,3,2,2,71.txt
0,0,0,5,0,0,13,0,0,25,0,12,30,0,10,0,0,8,0,8,8,8,8,23,25,18,0,0,0,24,9,4,6,13,6,4,4,6,0,0,5,15,20,13,12,21,21,10,21,9,72.txt
0,0,0,0,0,0,13,0,0,16,8,11,17,16,19,17,13,8,6,8,8,8,8,23,25,12,12,13,20,22,22,4,30,0,6,4,4,18,8,9,23,22,20,24,30,20,6,3,3,3,76.txt
0,0,0,0,0,0,13,0,0,16,0,11,17,16,19,17,13,8,0,8,8,8,8,23,25,18,14,17,0,20,22,26,30,0,6,4,4,6,22,24,23,22,20,24,30,5,10,6,20,8,78.txt
0,0,0,0,0,0,13,0,0,16,0,11,17,16,19,17,13,8,0,8,8,8,8,23,25,18,0,0,0,24,9,4,16,30,6,4,4,6,21,23,5,15,20,13,9,19,5,3,2,2,81.txt
0,0,0,0,0,0,13,0,0,16,0,11,8,10,0,17,13,8,0,8,0,0,0,23,25,0,0,0,0,24,22,30,30,0,0,0,18,9,0,0,23,22,20,24,30,3,0,6,0,0,84.txt
0,0,0,0,0,0,13,0,0,16,0,11,17,16,19,17,13,8,0,8,8,8,8,23,25,18,0,0,0,24,22,4,30,0,6,4,4,6,0,0,23,22,20,24,30,2,5,3,2,2,86.txt
0,0,0,0,0,0,13,0,0,16,0,11,17,16,19,17,13,8,0,8,8,8,8,23,25,18,0,0,0,24,9,4,16,30,6,4,4,6,0,0,14,15,20,13,9,19,11,18,5,11,89.txt
0,0,0,0,0,0,13,0,0,16,0,11,17,16,19,17,13,8,0,8,8,8,8,23,25,18,0,0,0,24,22,30,30,0,6,4,4,6,0,0,23,22,20,24,30,3,5,3,2,2,90.txt
0,0,0,0,0,0,13,0,0,16,0,11,17,16,19,17,13,8,6,8,8,8,8,23,25,6,7,8,7,8,22,26,30,0,6,4,4,18,8,9,23,22,20,24,30,3,5,3,2,2,92.txt
30,9,27,28,4,19,1,7,1,7,8,1,1,5,5,19,1,4,11,1,16,30,27,7,5,4,5,1,15,11,27,10,1,14,14,19,8,3,7,14,10,9,8,10,1,10,12,27,5,21,95.txt
0,0,0,0,0,0,13,0,0,16,0,2,17,16,19,17,13,8,0,8,8,8,8,23,25,18,0,0,0,24,9,4,16,12,6,4,4,6,21,23,18,15,20,4,4,19,5,3,2,2,97.txt
0,0,0,0,0,0,13,0,0,16,0,11,18,17,21,17,13,8,0,8,9,9,28,22,24,18,0,0,0,24,22,30,30,0,6,0,18,6,0,0,0,22,20,24,30,3,28,26,6,30,98.txt
0,0,0,0,0,0,13,0,0,16,8,11,17,16,19,17,13,8,13,8,8,8,8,23,25,1,1,25,30,28,22,26,30,0,6,4,4,18,11,10,23,22,20,24,30,3,10,6,20,8,100.txt
0,0,0,0,0,0,13,0,0,16,0,11,17,16,19,17,13,8,0,8,8,8,8,23,25,18,0,0,0,24,22,26,30,0,6,4,4,6,0,0,23,22,20,24,30,3,5,3,2,2,102.txt
0,0,0,0,0,0,13,0,0,16,0,11,17,16,19,17,13,8,0,8,8,8,8,23,25,18,0,0,0,24,22,30,30,0,6,4,4,6,23,2,23,22,20,24,30,3,10,6,18,17,105.txt
0,0,0,0,0,0,13,0,0,16,0,11,17,16,19,17,13,8,0,8,8,8,8,23,25,18,0,0,0,24,22,30,30,0,6,4,4,6,0,0,23,22,20,24,30,3,5,3,2,2,108.txt
0,0,0,0,0,0,13,0,0,16,20,11,17,16,19,17,13,8,16,8,8,8,8,23,25,10,9,10,7,10,9,26,7,30,6,4,4,18,8,9,7,15,20,3,12,3,5,3,2,2,110.txt
0,0,0,0,0,0,13,0,0,16,10,11,17,16,19,17,13,1,6,1,8,8,8,23,25,1,1,11,21,8,15,11,18,18,6,4,4,17,19,15,23,22,20,24,30,8,2,7,4,10,112.txt
12,11,17,4,8,5,22,27,2,28,11,11,11,12,24,26,29,29,28,2,28,20,24,25,18,30,26,19,24,2,9,4,16,13,29,23,25,24,21,24,18,4,16,13,9,19,5,3,2,2,114.txt
12,11,21,4,8,5,22,30,21,28,2,15,11,12,25,29,27,21,18,25,12,15,17,17,2,30,19,19,4,19,9,26,8,12,30,24,24,25,21,23,8,4,5,13,11,19,15,20,22,20,116.txt
0,0,0,0,0,0,13,0,0,16,0,11,17,16,19,17,13,8,0,8,8,8,8,23,25,18,0,0,0,24,22,26,30,0,6,4,4,6,0,0,23,22,20,24,30,3,23,11,30,24,118.txt
30,29,1,28,22,24,17,17,6,5,20,30,14,23,1,19,8,1,13,1,11,11,29,6,27,9,11,20,30,10,27,10,25,29,14,10,12,13,14,25,28,8,26,14,27,1,30,27,30,30,121.txt
0,0,0,0,0,0,13,0,0,16,0,11,17,16,19,17,13,8,0,8,8,8,8,23,25,18,0,0,0,24,22,28,30,0,6,4,4,6,0,0,23,22,20,24,30,5,12,16,10,18,123.txt
0,0,0,0,0,0,13,0,0,16,0,11,17,16,19,17,13,8,0,8,8,8,8,23,25,18,0,0,0,24,9,26,16,30,6,4,4,6,0,0,5,15,20,13,9,3,5,3,2,2,124.txt
0,0,0,0,0,0,13,0,0,16,0,11,17,16,19,17,13,8,0,8,8,8,8,23,25,18,0,0,0,24,22,26,30,0,6,4,4,6,0,0,23,22,20,24,30,3,2,29,4,5,126.txt
0,0,0,0,0,0,13,0,0,16,0,11,17,16,19,17,13,8,0,8,8,8,8,23,25,18,0,0,0,24,22,26,30,0,6,4,4,6,0,0,23,22,20,24,30,3,5,3,2,2,128.txt
0,0,0,0,0,0,13,0,0,16,0,11,17,16,19,17,13,8,0,8,8,8,8,23,25,18,0,0,0,24,22,26,30,0,6,4,4,6,0,0,23,22,20,24,30,3,23,10,27,5,130.txt
12,11,17,4,8,5,22,21,22,28,11,11,11,12,15,24,25,29,17,2,30,21,24,16,16,16,27,18,2,2,9,26,6,13,27,20,15,11,21,4,6,4,17,3,10,3,5,3,2,2,132.txt
0,0,0,0,0,0,13,0,0,16,0,11,17,16,19,17,13,8,0,8,8,8,8,23,25,18,0,0,0,24,22,26,30,0,6,4,4,6,0,0,23,22,20,24,30,3,2,5,4,5,135.txt
0,0,0,0,0,0,13,0,0,16,10,11,17,16,19,17,13,8,6,8,8,8,8,0,0,12,12,13,15,22,22,4,30,0,6,4,4,18,8,9,23,22,20,24,30,20,8,3,3,7,137.txt
0,0,0,0,0,0,13,0,0,16,20,11,17,16,19,17,13,20,23,12,8,8,8,23,25,24,11,11,30,12,17,10,10,10,6,4,4,21,26,26,14,15,20,13,9,29,29,30,26,30,141.txt
0,0,0,0,0,0,13,0,0,16,0,11,17,16,19,17,13,8,0,8,8,8,8,23,25,18,0,0,0,24,11,30,2,13,6,4,4,6,0,0,7,15,20,13,9,3,11,26,7,14,144.txt
0,0,1,11,10,19,17,18,10,5,20,30,16,5,27,16,17,23,13,7,20,24,11,11,27,6,7,15,30,9,20,14,22,26,6,7,7,17,30,30,6,16,20,27,10,29,14,18,23,19,145.txt
0,0,0,0,0,0,13,0,0,16,0,11,17,16,19,17,13,8,0,8,8,8,8,21,23,18,0,0,0,24,22,26,30,0,6,4,4,6,0,0,23,22,20,24,30,3,9,4,0,0,147.txt
0,0,0,0,0,0,13,0,0,16,0,11,17,16,19,17,13,8,0,8,8,8,8,23,25,18,0,0,0,24,9,30,16,30,6,4,4,6,0,0,8,15,20,13,9,3,10,0,20,8,149.txt
0,0,0,0,0,0,13,0,0,16,0,11,17,16,19,17,13,8,0,8,8,8,8,23,25,18,0,0,0,24,22,26,30,0,6,4,4,6,0,0,23,22,20,24,30,3,2,17,4,10,151.txt
0,0,16,1,10,10,5,7,8,17,25,30,25,5,4,17,13,20,13,24,22,26,11,6,28,5,6,25,7,28,20,10,9,23,6,7,30,18,11,10,23,22,20,24,30,11,10,6,24,8,154.txt
0,0,0,0,0,0,13,0,0,16,0,11,17,16,19,17,13,8,0,8,8,8,8,23,25,18,0,0,0,24,22,26,30,0,6,4,4,6,0,0,23,22,20,24,30,3,5,3,2,2,156.txt
0,0,0,0,0,0,13,0,0,16,0,11,17,16,19,18,11,8,0,8,8,8,8,23,25,18,0,0,0,24,11,4,16,30,6,4,4,6,0,0,14,16,4,13,9,19,12,30,13,11,158.txt
0,0,0,0,0,0,13,0,0,16,0,11,17,16,19,17,13,8,0,8,8,8,8,23,25,18,0,0,0,24,9,26,7,30,6,4,4,6,0,0,5,15,20,13,12,3,5,3,2,2,160.txt
0,0,0,0,0,0,13,0,0,16,0,11,17,16,19,17,13,8,0,8,8,8,8,23,25,0,0,0,0,24,22,30,30,0,19,4,4,9,0,0,23,22,20,24,30,3,10,6,0,0,161.txt
0,0,0,0,0,0,13,0,0,16,0,11,8,10,0,17,13,8,0,8,0,17,0,22,24,0,4,4,0,4,11,30,14,30,0,0,0,9,23,24,8,3,20,13,9,4,11,30,7,14,163.txt
0,0,0,0,0,0,13,0,0,16,8,11,17,16,19,17,13,8,6,8,8,8,8,21,23,12,12,13,20,22,22,26,30,0,6,4,4,1,8,9,23,22,20,24,30,3,23,12,27,5,165.txt
0,0,0,0,0,0,13,0,0,16,0,11,17,16,19,17,13,4,0,6,8,8,8,23,25,18,0,0,0,24,4,8,9,8,6,4,4,6,0,0,23,22,20,24,30,7,12,11,7,14,167.txt
0,0,0,0,0,0,13,0,0,16,0,11,17,16,19,17,13,8,0,8,9,9,9,23,25,18,0,0,0,24,22,30,30,0,6,4,4,6,0,0,23,22,20,24,30,7,2,29,4,5,169.txt
0,0,0,0,0,0,13,0,0,16,0,11,17,16,19,17,13,8,0,8,8,8,8,23,25,18,0,0,0,24,22,26,30,0,6,4,4,6,0,0,23,22,20,24,30,3,23,11,30,29,171.txt
0,0,0,0,0,0,13,0,0,16,0,11,17,16,19,17,13,8,0,8,8,8,8,23,25,18,0,0,0,24,11,30,8,13,6,4,4,6,0,0,8,15,20,13,9,3,11,21,22,11,173.txt
0,0,0,0,0,0,13,0,0,16,0,11,17,16,19,17,13,8,0,8,8,8,8,23,25,18,0,0,0,24,22,4,30,0,6,4,4,6,0,0,23,22,20,24,30,19,2,17,4,10,175.txt
0,0,0,0,0,0,13,0,0,16,0,11,17,16,19,17,13,4,0,1,8,8,8,23,25,18,0,0,0,24,27,10,9,25,6,4,4,21,10,29,23,22,20,24,30,9,22,20,25,24,177.txt
0,0,0,0,0,0,13,0,0,16,8,11,17,16,19,17,13,4,6,1,8,8,8,23,25,29,30,11,23,11,6,10,25,10,6,4,4,22,10,14,23,22,20,24,30,7,24,5,26,24,179.txt
0,0,0,0,0,0,13,0,0,16,8,11,17,16,19,17,13,8,6,8,8,8,8,0,0,12,12,13,17,22,22,4,30,0,6,4,4,18,8,9,23,22,20,24,30,19,22,11,25,5,182.txt
0,0,0,0,0,0,13,0,0,16,0,11,17,16,19,17,13,8,0,8,8,8,8,23,25,18,0,0,0,24,22,30,30,0,6,4,4,6,0,0,23,22,20,24,30,3,27,11,27,4,184.txt
0,0,0,0,0,0,13,0,0,16,0,11,17,16,19,17,13,8,0,8,8,8,8,23,25,18,0,0,0,24,22,26,30,0,6,4,4,6,0,0,23,22,20,24,30,3,5,3,2,2,188.txt
0,0,0,0,0,0,13,0,0,16,0,11,17,16,19,17,13,8,0,8,8,8,8,23,25,18,0,0,0,24,9,26,16,30,6,4,4,6,0,0,24,15,20,13,9,3,5,3,2,2,189.txt
0,0,0,0,0,0,13,0,0,16,0,11,17,16,19,17,13,8,0,8,8,8,8,23,25,18,0,0,0,24,9,4,16,30,6,4,4,6,21,4,8,15,20,4,4,19,11,20,14,11,191.txt
29,29,1,1,4,13,30,7,11,17,20,30,16,4,4,4,10,20,9,14,26,27,30,6,27,10,9,5,28,5,13,23,20,16,9,13,30,17,27,8,28,11,29,16,15,24,17,9,16,9,194.txt
0,0,0,0,0,0,13,0,0,16,8,11,17,16,19,17,13,8,6,8,8,8,8,23,25,12,12,13,13,22,22,26,30,0,6,4,4,18,8,9,23,22,20,24,30,3,18,11,17,5,197.txt
0,0,0,0,0,0,13,0,0,16,20,0,17,16,19,17,13,20,1,19,8,8,8,23,25,6,7,15,7,12,1,1,18,1,6,4,4,22,26,18,14,15,20,13,12,11,27,18,26,30,199.txt
0,0,0,0,0,0,13,0,0,16,0,11,17,16,19,17,13,8,0,8,8,8,8,23,25,18,0,0,0,24,22,26,30,0,6,4,4,6,0,0,23,22,20,24,30,3,5,3,2,2,203.txt
0,0,0,0,0,0,13,0,0,16,0,11,17,16,19,17,13,8,0,8,8,8,8,23,25,18,0,0,0,24,22,26,30,0,6,4,4,18,8,9,23,22,20,24,30,3,5,3,2,2,204.txt
0,0,0,0,0,0,13,0,0,16,0,11,17,16,19,17,13,8,0,8,8,8,8,23,25,18,14,17,0,20,16,30,16,30,6,4,4,6,0,0,4,15,20,4,4,3,11,20,5,11,209.txt
0,0,0,0,0,0,13,0,0,16,0,11,18,17,20,17,13,8,0,8,9,9,9,22,24,18,0,0,0,24,22,30,30,0,6,26,18,6,0,0,0,23,20,0,0,27,10,6,0,0,210.txt
0,0,0,0,0,0,13,0,0,16,0,11,17,16,19,17,13,8,0,8,8,8,8,23,25,18,0,0,0,24,22,26,30,0,6,4,4,6,0,0,23,22,20,24,30,3,2,11,4,5,212.txt
0,0,0,0,0,0,13,0,0,16,0,11,17,16,19,17,13,8,0,8,8,8,8,23,25,18,0,0,0,24,9,26,8,30,6,4,4,6,23,24,5,15,20,13,9,3,11,20,7,13,214.txt
28,29,1,10,4,9,3,3,3,7,20,30,16,5,11,12,20,20,15,28,26,27,30,10,27,10,9,20,30,13,15,16,29,18,22,12,29,14,27,27,30,29,28,22,22,29,29,13,28,27,217.txt
0,0,0,0,0,0,13,0,0,16,6,11,17,16,19,17,13,8,11,8,8,8,8,23,25,10,9,9,30,10,22,4,30,0,6,4,4,18,8,9,23,22,20,24,30,19,8,3,3,7,219.txt
0,0,0,0,0,0,13,0,0,16,0,11,17,16,19,17,13,8,0,8,8,8,8,23,25,18,0,0,0,24,22,26,30,0,6,4,4,6,0,0,23,22,20,24,30,0,5,3,2,2,220.txt
0,11,25,4,8,2,2,2,21,2,2,2,13,19,2,30,2,29,28,2,12,13,15,17,2,30,19,19,0,19,8,4,16,30,15,29,2,2,2,23,8,15,3,13,9,19,10,0,0,0,222.txt
0,0,0,0,0,0,13,0,0,16,0,11,17,16,19,17,13,8,6,8,8,8,8,23,25,10,9,10,15,8,22,26,30,0,6,4,4,18,8,9,23,22,20,24,30,3,5,3,2,2,225.txt
0,0,0,0,0,0,13,0,0,16,0,11,17,16,19,17,13,8,0,8,8,8,8,23,25,18,0,0,0,24,22,26,30,0,6,4,4,6,0,0,23,22,20,24,30,3,5,3,2,2,227.txt
0,0,0,0,0,0,13,0,0,16,0,11,17,16,19,17,13,8,0,8,8,8,8,23,25,18,0,0,0,24,22,30,30,0,6,4,4,6,0,0,23,22,20,24,30,3,9,4,0,0,229.txt
0,0,0,0,0,0,13,0,0,16,0,11,17,16,19,17,13,8,0,8,8,8,8,19,15,18,0,0,0,24,8,30,16,30,6,4,4,6,0,0,22,3,20,13,12,3,10,6,0,0,231.txt
0,0,27,28,18,19,1,20,1,5,10,30,25,5,1,19,1,1,6,1,22,26,4,15,13,1,1,15,23,11,6,10,22,10,14,12,12,17,19,15,27,7,26,15,1,8,12,21,5,11,236.txt
0,0,0,0,0,0,13,0,0,16,0,11,17,16,19,17,13,8,0,8,8,8,8,23,25,18,0,0,0,24,9,26,16,30,6,4,4,6,21,24,5,15,20,13,9,3,5,3,2,2,241.txt
0,0,0,0,0,0,13,0,0,16,10,11,17,16,19,17,13,8,6,8,8,8,8,23,25,23,28,15,7,10,22,30,30,0,6,4,4,18,8,9,23,22,20,24,30,3,5,3,2,2,242.txt
0,0,0,0,0,0,13,0,0,16,0,11,17,16,19,17,13,8,0,8,8,8,8,23,25,18,0,0,0,24,22,26,30,0,6,4,4,6,0,0,23,22,20,24,30,3,2,17,4,10,245.txt
12,11,25,4,8,2,2,2,2,2,2,15,13,19,2,30,2,29,28,2,2,2,24,25,2,30,2,29,24,2,11,30,2,5,30,29,2,25,2,23,2,4,2,3,9,3,15,8,22,20,247.txt
0,11,0,0,0,0,13,0,0,16,0,2,17,16,19,17,13,21,0,25,8,8,8,23,25,18,0,0,0,24,9,4,16,30,6,4,4,6,21,23,8,15,20,4,4,20,5,3,2,2,249.txt
12,12,17,4,8,5,22,21,22,18,11,11,11,12,24,24,25,21,17,25,30,2,24,25,16,16,2,18,4,2,2,26,11,5,27,20,15,11,20,4,6,18,22,28,2,3,5,3,2,2,250.txt
0,0,0,0,0,0,13,0,0,16,0,11,17,16,19,17,13,8,0,8,8,8,8,23,25,18,0,0,0,24,22,26,30,0,6,4,4,6,0,0,23,22,20,24,30,3,26,27,30,24,252.txt
30,29,12,10,3,10,21,1,5,4,20,30,16,5,4,15,21,20,24,24,18,22,11,30,29,6,7,20,30,1,1,1,23,1,1,7,30,10,18,13,19,1,26,9,25,9,29,8,6,30,256.txt
0,0,0,0,0,0,13,0,0,16,0,11,17,16,19,17,13,8,0,8,8,8,8,23,25,0,0,0,0,24,22,30,30,0,19,4,4,9,23,23,23,22,20,24,30,3,9,4,0,0,258.txt
0,0,0,0,0,0,13,0,0,16,0,11,17,16,19,17,13,8,0,8,8,8,8,23,25,18,0,0,0,24,22,29,30,0,6,4,4,18,8,9,23,22,20,24,30,3,23,11,30,5,260.txt
0,0,0,0,0,0,13,0,0,16,0,11,17,16,19,17,13,8,0,8,8,8,8,23,25,18,0,0,0,24,22,4,30,0,6,4,4,6,0,0,23,22,20,24,30,2,10,6,0,0,261.txt
0,0,0,0,0,0,13,0,0,16,7,11,17,16,19,17,13,8,3,8,25,18,20,23,25,6,7,8,8,1,0,28,0,0,7,6,9,16,11,10,23,22,20,24,30,26,20,4,8,8,264.txt
0,0,0,0,0,0,13,0,0,16,0,11,17,16,19,17,13,8,0,8,8,8,8,23,25,18,0,0,0,24,22,26,30,0,6,4,4,6,0,0,23,22,20,24,30,3,5,3,2,2,269.txt
0,0,0,0,0,0,13,0,0,16,8,11,17,16,19,17,13,4,6,4,8,8,8,23,25,12,12,13,20,22,5,11,22,9,6,4,4,13,28,14,23,22,20,24,30,7,23,11,30,5,272.txt
0,0,0,0,0,0,13,0,0,16,8,11,17,16,19,17,13,8,6,8,8,8,8,23,25,12,12,13,15,22,22,26,30,0,6,4,4,18,8,9,23,22,20,24,30,3,23,11,26,5,274.txt
0,0,0,0,0,0,14,0,0,16,0,17,19,18,21,8,11,25,0,29,15,17,28,8,8,19,22,26,25,4,11,3,14,4,0,0,0,0,2,5,4,3,21,5,7,2,11,30,22,21,276.txt
0,0,0,0,0,0,13,0,0,16,20,11,18,17,20,17,13,8,12,8,8,8,8,23,25,10,9,1,15,1,8,26,16,30,6,26,18,1,1,1,8,15,20,4,4,3,28,26,26,30,280.txt
0,0,0,0,0,0,13,0,0,16,0,11,17,16,19,17,13,8,0,8,8,8,8,23,25,18,0,0,0,24,22,26,30,0,6,4,4,6,0,0,23,22,20,24,30,3,5,3,2,2,282.txt
0,0,0,0,0,0,13,0,0,16,0,2,17,16,19,17,13,8,0,8,8,8,8,23,25,18,0,0,0,24,9,4,16,30,6,4,4,6,0,0,18,15,20,4,4,19,5,3,2,2,283.txt
0,0,0,0,0,0,13,0,0,16,0,11,17,16,19,17,13,8,0,8,8,8,8,23,25,18,0,0,0,24,9,30,16,30,6,4,4,6,22,4,5,15,20,4,4,3,11,20,22,11,284.txt
0,0,0,0,0,0,13,0,0,16,0,11,17,16,19,17,13,8,0,8,8,8,8,23,25,18,0,0,0,24,9,26,8,13,6,4,4,6,21,4,7,15,20,13,9,3,11,20,23,19,286.txt
0,0,0,0,0,0,13,0,0,16,0,11,17,16,19,17,13,8,0,8,8,8,8,23,25,18,0,0,0,24,22,4,30,0,6,4,4,6,0,0,23,22,20,24,30,19,10,6,20,17,288.txt
0,0,0,0,0,0,13,0,0,16,0,11,17,16,19,17,13,8,0,8,8,8,8,23,25,18,0,0,0,24,11,26,2,13,6,4,4,6,21,4,5,15,20,13,9,5,11,20,13,11,290.txt
0,0,0,0,0,0,13,0,0,16,0,11,17,16,19,17,13,8,0,8,8,8,8,23,25,18,0,0,0,24,9,4,16,30,6,4,4,6,21,23,22,15,20,13,12,19,5,3,2,2,293.txt
0,0,0,0,0,0,13,0,0,16,0,0,17,16,19,17,13,8,0,8,8,8,8,23,25,0,22,26,0,4,16,30,14,30,19,4,4,9,0,0,8,3,20,4,4,3,11,26,22,11,295.txt
30,9,1,22,18,13,26,7,6,24,22,22,10,23,4,13,19,20,29,27,16,30,19,9,5,11,10,1,12,8,13,23,20,16,14,19,30,20,7,30,12,12,10,11,15,22,28,13,27,27,297.txt
0,0,0,0,0,0,13,0,0,16,0,11,17,16,19,17,13,8,0,8,8,8,8,23,25,18,0,0,0,24,9,26,8,30,6,4,4,6,0,0,8,15,20,13,9,5,9,4,20,17,300.txt
0,0,0,0,0,0,13,0,0,16,0,11,17,16,19,17,13,8,0,8,8,8,8,23,25,18,0,0,0,24,22,30,30,0,6,4,4,6,0,0,23,22,20,24,30,3,5,3,2,2,303.txt
0,0,0,0,0,0,13,0,0,16,0,11,17,16,19,17,13,20,0,19,8,8,8,23,25,0,0,0,0,24,4,8,18,8,19,4,4,9,0,0,23,22,20,24,30,1,12,5,5,11,305.txt
0,0,0,0,0,0,13,0,0,16,4,2,17,16,19,17,13,4,23,1,8,8,8,23,25,4,5,5,5,5,1,1,21,1,6,4,4,30,12,11,14,15,20,13,9,1,11,26,22,11,307.txt
0,0,0,0,0,0,13,0,0,16,0,2,17,16,19,17,13,8,0,8,8,8,8,23,25,18,0,0,0,24,9,4,7,13,6,4,4,6,0,0,14,15,20,13,10,19,11,27,23,19,311.txt
0,0,0,0,0,0,13,0,0,16,25,11,17,16,19,17,13,1,9,1,8,8,8,23,25,4,5,5,5,5,17,10,18,10,6,4,4,22,10,8,23,22,20,24,30,9,12,20,5,9,313.txt
0,0,0,0,0,0,13,0,0,16,0,11,17,16,19,17,13,8,0,8,8,8,8,23,25,18,0,0,0,24,9,26,16,30,6,4,4,6,0,0,5,15,20,13,12,3,5,3,2,2,318.txt
0,0,0,0,0,0,13,0,0,16,8,11,17,16,19,17,13,8,6,8,8,8,8,21,23,10,9,10,7,10,22,26,30,0,6,4,4,18,8,9,23,22,20,24,30,3,5,3,2,2,320.txt
30,9,1,28,4,13,26,7,30,7,22,23,24,25,3,4,5,20,11,10,16,30,18,4,5,10,9,6,10,6,12,25,3,15,16,5,6,3,7,14,12,26,10,11,6,10,7,16,19,18,322.txt
30,9,1,28,4,13,26,7,30,7,22,23,24,25,3,4,5,20,11,10,16,30,18,4,5,10,9,6,10,6,12,25,3,15,16,5,6,3,7,14,12,26,10,11,6,10,7,16,19,18,323.txt
0,0,9,1,3,10,21,1,5,4,20,30,16,5,4,8,11,20,13,24,18,22,11,6,27,6,7,20,8,1,1,1,24,1,19,7,30,15,16,18,23,22,4,24,30,29,29,30,6,30,324.txt
0,0,0,0,0,0,13,0,0,16,0,11,17,16,19,17,13,8,0,8,8,8,8,23,25,18,0,0,0,24,9,4,16,30,6,4,4,6,0,0,5,15,20,4,4,19,5,3,2,2,326.txt
0,0,0,0,0,0,13,0,0,16,0,2,17,16,19,17,13,8,0,8,8,8,8,23,25,18,0,0,0,24,9,30,16,30,6,4,4,6,0,0,8,15,20,13,9,5,10,0,0,0,328.txt
0,0,0,0,0,0,13,0,0,16,0,11,17,16,19,17,13,8,0,8,8,8,8,0,0,18,0,0,0,24,22,4,30,0,6,4,4,6,0,0,23,22,20,24,30,19,5,3,2,2,329.txt
0,0,0,0,0,0,13,0,0,16,10,11,17,16,19,17,13,8,6,8,8,8,8,23,25,29,30,15,23,1,22,30,30,0,6,4,4,18,1,1,23,22,20,24,30,3,10,6,0,0,333.txt
0,0,17,4,8,2,2,2,22,2,2,11,12,13,2,30,2,8,17,8,13,13,15,16,20,16,19,18,0,19,9,4,2,13,15,25,26,22,15,14,7,15,20,13,10,19,24,21,26,24,335.txt
0,0,0,0,0,0,13,0,0,16,0,11,17,16,19,17,13,8,0,8,8,8,8,23,25,0,0,0,0,24,22,30,30,0,19,4,4,9,0,0,23,22,20,24,30,3,10,6,0,0,337.txt
0,11,21,4,8,5,22,27,21,23,2,15,11,29,24,2,2,21,28,25,12,14,16,18,21,30,19,29,0,19,9,17,16,6,30,24,26,25,21,23,5,15,20,4,4,2,5,3,2,2,341.txt
0,0,0,0,0,0,13,0,0,16,0,11,17,16,19,17,13,8,0,8,8,8,8,23,25,18,0,0,0,24,9,4,16,30,6,4,4,6,20,5,5,15,20,4,4,19,11,18,14,11,342.txt
0,0,0,0,0,0,13,0,0,16,0,11,17,16,19,17,13,8,0,8,8,8,8,23,25,18,0,0,0,24,22,26,30,0,6,4,4,6,21,5,23,22,20,24,30,3,5,3,2,2,344.txt
0,0,0,0,0,0,13,0,0,16,0,11,17,16,19,17,13,8,0,8,8,8,8,23,25,18,0,0,0,24,22,30,30,0,6,4,4,6,0,0,23,22,20,24,30,3,12,5,7,14,347.txt
0,0,0,0,0,0,13,0,0,16,0,11,17,16,19,17,13,8,0,8,8,8,8,23,25,18,4,4,0,4,22,30,30,0,6,4,4,6,0,0,23,22,20,24,30,5,10,6,0,0,349.txt
0,0,0,0,0,0,13,0,0,16,0,11,17,16,19,17,13,8,0,8,8,8,8,23,25,18,0,0,25,24,11,30,8,30,6,4,4,6,0,0,8,15,20,13,9,3,11,30,5,13,352.txt
0,0,0,0,0,0,13,0,0,16,0,11,17,16,19,17,13,8,0,8,8,8,8,23,25,18,0,0,0,24,22,26,30,0,6,4,4,6,0,0,23,22,20,24,30,5,12,11,23,5,354.txt
0,0,0,0,0,0,13,0,0,16,0,11,17,16,19,17,13,8,0,8,8,8,8,23,25,18,0,0,0,24,22,26,30,0,6,4,4,6,0,0,23,22,20,24,30,3,10,6,20,8,358.txt
0,0,0,0,0,0,13,0,0,16,0,11,17,16,19,17,13,8,0,8,8,8,8,23,25,18,0,0,0,24,22,4,30,0,6,4,4,6,0,0,23,22,20,24,30,19,5,3,2,2,360.txt
0,0,0,0,0,0,13,0,0,16,0,11,17,16,19,17,13,8,0,8,8,8,8,23,25,18,0,0,0,24,9,26,16,30,6,4,4,6,0,0,5,15,20,4,4,5,5,3,2,2,362.txt
0,0,0,0,0,0,13,0,0,16,0,11,17,16,19,17,13,8,0,8,8,8,8,23,25,18,0,0,0,24,11,4,16,30,6,4,4,6,0,0,5,15,19,13,9,19,5,3,2,2,364.txt
0,0,0,0,0,0,13,0,0,16,0,11,17,16,19,17,13,8,0,8,8,8,8,23,25,18,0,0,0,24,8,4,16,13,6,4,4,6,0,0,14,3,20,13,9,2,0,6,0,0,365.txt
0,0,0,0,0,0,13,0,0,16,0,11,17,16,19,17,13,8,0,8,8,8,8,23,25,18,0,0,0,24,9,4,16,30,6,4,4,6,0,0,22,15,20,4,4,19,18,17,17,24,368.txt
0,0,0,0,0,0,13,0,0,16,0,11,17,16,19,17,13,8,0,8,8,8,8,23,25,18,0,0,0,24,22,26,30,0,6,4,4,6,0,0,23,22,20,24,30,3,12,14,5,11,369.txt
0,0,0,0,0,0,13,0,0,16,0,11,17,16,19,17,13,8,0,8,8,8,8,23,25,0,0,0,0,24,22,30,30,0,19,4,4,9,0,0,23,22,20,24,30,3,9,4,0,0,371.txt
30,9,1,29,5,4,4,7,7,6,4,6,24,8,29,19,5,12,11,11,16,30,19,4,5,8,8,6,20,6,13,25,4,16,17,5,30,19,7,17,13,26,23,12,6,22,1,9,1,12,375.txt
0,0,0,0,0,0,13,0,0,16,0,11,17,16,19,17,13,8,0,8,8,8,8,23,25,18,4,4,0,4,9,30,16,30,6,4,4,6,22,5,8,15,20,13,9,5,10,0,20,8,377.txt
0,0,0,0,0,0,13,0,0,16,0,11,17,16,19,17,13,8,0,8,8,8,8,23,25,18,0,0,0,24,22,30,30,0,6,4,4,6,0,0,23,22,20,24,30,3,2,11,4,10,380.txt
30,9,1,28,18,30,17,12,27,5,20,23,24,23,6,4,8,11,13,17,1,1,1,7,7,11,10,1,30,8,25,21,1,23,20,19,13,30,12,30,1,8,1,30,18,10,23,24,30,29,382.txt
0,0,16,1,10,10,7,10,8,17,4,1,26,5,4,19,1,20,13,12,14,28,5,6,14,6,7,12,30,8,1,1,24,1,10,7,30,30,12,17,12,1,20,11,28,29,29,30,30,30,385.txt
26,29,1,28,18,13,30,7,30,5,20,20,14,24,29,4,12,20,11,27,11,11,30,6,27,27,28,20,26,8,13,23,26,16,9,13,30,17,27,30,28,12,26,9,19,28,16,9,15,27,386.txt
0,0,0,0,0,0,13,0,0,16,0,11,17,16,19,17,13,8,0,8,8,8,8,23,25,18,0,0,0,24,22,26,30,0,6,4,4,6,0,0,23,22,20,24,30,3,5,3,2,2,387.txt
0,0,0,0,0,0,13,0,0,16,0,11,17,16,19,17,13,8,0,8,8,8,8,23,25,18,0,0,0,24,9,26,6,30,6,4,4,6,21,5,5,15,20,13,9,5,14,27,10,13,391.txt
0,0,0,0,0,0,13,0,0,16,0,11,17,16,19,17,13,8,0,8,8,8,8,23,25,0,0,0,0,24,11,30,8,30,19,4,4,9,23,5,8,15,20,13,11,3,10,6,0,0,394.txt
0,0,0,0,0,0,13,0,0,16,0,2,17,16,19,17,13,8,0,8,8,8,8,23,25,18,0,0,0,24,16,4,14,30,6,4,4,6,2,22,8,15,20,4,4,2,11,26,13,11,395.txt
0,0,0,0,0,0,13,0,0,16,0,11,17,16,19,17,13,8,0,8,8,8,8,23,25,18,0,0,0,24,22,30,30,0,6,4,4,6,0,0,23,22,20,24,30,3,10,6,24,8,397.txt
0,0,16,1,10,19,1,20,1,4,20,30,16,5,5,19,1,4,1,1,22,26,11,6,30,29,30,11,7,12,6,10,18,10,1,7,5,22,26,14,11,7,9,15,28,29,24,21,30,24,400.txt
0,0,1,29,4,13,3,19,7,8,26,5,16,5,3,19,1,20,11,19,22,26,6,4,4,1,1,6,20,6,1,1,9,1,25,1,30,22,26,18,24,15,20,8,8,29,11,21,7,13,402.txt
0,0,0,0,0,0,13,0,0,16,0,11,17,16,19,17,13,8,0,8,8,8,8,23,25,18,0,0,0,24,22,26,30,0,6,4,4,6,0,0,23,22,20,24,30,5,12,20,5,11,405.txt
0,0,0,0,0,0,13,0,0,16,4,11,17,16,19,17,13,8,11,8,8,8,8,23,25,29,30,20,30,11,22,26,30,0,6,4,4,17,30,30,23,22,20,24,30,29,24,22,30,24,407.txt
4,18,1,10,18,13,3,3,28,5,25,20,23,5,14,3,3,20,29,19,22,26,13,30,28,10,9,25,30,28,4,8,9,8,14,12,30,22,18,26,29,21,26,14,23,24,11,20,13,11,411.txt
0,0,0,0,0,0,13,0,0,16,0,11,17,16,19,17,13,8,0,8,8,8,8,23,25,18,14,17,0,20,22,26,30,0,6,4,4,6,0,0,23,22,20,24,30,3,5,3,2,2,413.txt
0,0,0,0,0,0,13,0,0,16,0,11,17,16,19,17,13,8,0,8,8,8,8,23,25,0,0,0,0,24,9,30,8,30,19,4,4,9,0,0,8,15,20,13,9,3,10,6,0,0,416.txt
30,29,16,22,10,28,17,3,28,14,20,30,14,4,7,15,17,9,24,7,11,11,30,28,27,6,7,20,10,8,20,14,22,23,1,7,7,17,18,29,28,13,29,14,25,29,22,27,25,30,417.txt
0,0,0,0,0,0,13,0,0,16,0,11,17,16,19,17,13,8,0,8,8,8,8,23,25,18,0,0,0,24,22,26,30,0,6,4,4,6,0,0,23,22,20,24,30,3,5,3,2,2,419.txt
0,0,0,0,0,0,13,0,0,16,0,11,17,16,19,17,13,4,0,1,8,8,8,23,25,18,0,0,0,24,21,12,23,10,6,4,4,22,10,14,23,22,20,24,30,1,23,30,26,24,421.txt
0,0,0,0,0,0,13,0,0,16,8,11,17,16,19,17,13,8,6,8,8,8,8,23,25,6,7,20,23,10,22,4,30,0,6,4,4,18,8,9,23,22,20,24,30,19,23,11,30,24,423.txt
0,0,0,0,0,0,13,0,0,16,0,11,17,16,19,17,13,4,0,1,8,8,8,23,25,18,22,26,0,4,4,5,3,8,6,4,4,6,23,24,8,15,20,4,4,10,11,20,7,14,425.txt
0,0,0,0,0,0,13,0,0,16,0,11,17,16,19,17,13,8,0,8,8,8,22,23,25,18,0,0,0,25,22,26,30,0,6,4,4,18,1,1,3,5,6,7,5,0,10,6,24,17,427.txt
0,0,0,0,0,0,13,0,0,16,6,11,17,16,19,17,13,8,1,8,8,8,22,23,25,10,9,10,7,10,22,30,30,0,19,4,4,1,8,9,3,5,6,7,5,3,5,3,2,2,430.txt
0,0,0,0,0,0,13,0,0,16,0,11,17,16,19,17,13,8,0,8,8,8,8,23,25,18,0,0,0,24,22,4,30,0,6,4,4,6,0,0,23,22,20,24,30,19,12,5,5,11,434.txt
0,0,0,0,0,0,13,0,0,16,20,11,17,16,19,17,13,20,11,10,8,8,8,23,25,6,7,16,30,8,20,16,21,23,6,4,4,18,8,9,14,15,20,13,12,11,22,17,25,30,436.txt
0,0,0,0,0,0,13,0,0,16,0,11,17,16,19,17,13,8,0,8,8,8,8,23,25,18,0,0,0,24,8,26,2,30,6,4,4,6,23,23,8,15,20,3,12,3,9,4,20,8,439.txt
0,0,0,0,0,0,13,0,0,16,0,11,17,16,19,17,13,8,0,8,8,8,8,23,25,18,0,0,0,24,9,4,16,30,6,4,4,6,0,0,5,15,20,13,12,19,5,3,2,2,444.txt
0,0,21,4,8,5,22,27,22,28,2,2,11,12,24,28,30,8,17,8,13,14,16,16,18,16,19,18,0,19,9,4,16,30,29,23,25,11,21,4,5,15,20,13,9,19,11,20,14,11,447.txt
0,0,0,0,0,0,13,0,0,16,0,2,17,16,19,17,13,8,0,8,8,8,8,23,25,18,0,0,0,24,9,4,16,30,6,4,4,6,21,23,22,15,20,4,4,19,5,3,2,2,449.txt
0,0,0,0,0,0,13,0,0,16,0,11,17,16,19,17,13,8,0,8,8,8,8,23,25,18,0,0,0,24,22,26,30,0,6,4,4,6,0,0,23,22,20,24,30,3,2,10,4,10,452.txt
0,0,0,0,0,0,13,0,0,16,0,11,17,16,19,17,13,8,0,8,8,8,8,23,25,18,0,0,0,24,16,4,16,30,6,4,4,6,0,0,8,15,20,4,4,19,11,20,14,13,454.txt
0,0,0,0,0,0,13,0,0,16,0,2,18,17,0,17,13,8,0,8,9,9,0,22,24,18,0,0,0,24,16,30,16,30,6,0,0,6,23,4,8,15,20,4,4,2,11,26,7,14,456.txt
0,0,0,0,0,0,13,0,0,16,0,11,17,16,19,17,13,8,0,8,8,8,8,21,23,18,0,0,0,24,22,30,30,0,6,4,4,6,0,0,23,22,20,24,30,3,5,3,2,2,458.txt
0,0,0,0,0,0,13,0,0,16,0,11,17,16,19,17,13,4,0,7,8,8,8,23,25,18,0,0,0,24,27,10,22,29,6,4,4,21,28,14,23,23,20,0,0,7,12,11,5,11,460.txt
0,0,0,0,0,0,13,0,0,16,25,11,17,16,19,17,13,8,11,8,8,8,8,23,25,29,30,25,30,28,9,26,16,30,6,4,4,18,8,9,5,15,20,13,9,3,13,16,23,18,463.txt
0,0,0,0,0,0,13,0,0,16,0,11,17,16,19,17,13,8,0,8,8,8,8,23,25,0,0,0,0,24,11,30,2,30,19,4,4,9,0,0,5,15,20,5,13,5,5,3,2,2,465.txt
0,0,0,0,0,0,13,0,0,16,0,11,17,16,19,17,13,8,0,8,8,8,8,23,25,18,0,0,0,25,11,4,2,13,6,4,4,6,23,5,22,15,20,3,9,19,11,28,22,11,469.txt
30,9,1,10,4,19,1,3,28,7,22,23,24,23,5,3,3,4,26,1,4,5,27,30,1,25,11,1,9,30,27,10,25,29,10,12,8,30,12,14,12,1,10,11,18,9,30,20,30,30,472.txt
0,0,0,0,0,0,13,0,0,16,0,11,17,16,19,17,13,8,0,8,8,8,8,23,25,18,0,0,0,24,22,4,30,0,6,4,4,6,0,0,23,22,20,24,30,19,8,3,3,7,473.txt
0,0,0,0,0,0,13,0,0,16,0,11,17,16,19,17,13,8,12,8,8,8,8,23,25,6,7,20,15,1,8,4,16,13,19,4,4,1,1,1,14,3,3,13,9,19,30,26,6,30,475.txt
0,0,0,0,0,0,13,0,0,16,0,11,19,18,21,17,13,8,0,8,15,0,28,23,25,0,0,0,0,24,22,30,30,0,0,0,18,22,10,14,23,22,20,24,30,7,12,5,7,14,477.txt
0,0,0,0,0,0,13,0,0,16,0,11,17,16,19,17,13,8,0,8,8,8,8,23,25,18,0,0,0,24,22,26,30,0,6,4,4,6,0,0,23,22,20,24,30,19,12,11,5,5,479.txt
0,0,0,0,0,0,13,0,0,16,0,11,17,16,19,17,13,8,0,8,8,8,8,23,25,18,0,0,0,24,22,26,30,0,6,4,4,6,0,0,23,23,20,0,0,5,12,11,23,5,481.txt
0,0,0,0,0,0,13,0,0,16,0,11,17,16,19,17,13,8,0,8,8,8,8,23,25,18,0,0,0,24,22,26,30,0,6,4,4,6,0,0,23,22,20,24,30,3,2,5,4,10,485.txt
0,0,0,0,0,0,13,0,0,16,0,11,18,17,20,17,13,8,0,8,9,9,9,23,25,18,0,0,0,24,22,30,30,0,6,26,0,6,0,0,23,22,20,24,30,3,23,12,6,4,487.txt
0,0,17,4,8,5,22,27,26,28,2,11,11,12,24,26,29,8,18,8,13,29,17,17,18,30,19,19,0,19,9,30,16,12,29,23,26,2,21,23,24,15,20,13,12,3,9,4,20,8,488.txt
0,0,0,0,0,0,13,0,0,16,0,11,17,16,19,17,13,8,0,8,8,8,8,23,25,18,0,0,0,24,22,26,30,0,6,4,4,6,0,0,23,22,20,24,30,3,5,3,2,2,491.txt
0,0,0,0,0,0,13,0,0,16,0,11,17,16,19,17,13,8,0,8,8,8,8,23,25,18,0,0,0,24,0,30,0,0,6,4,4,6,0,0,23,22,3,24,30,3,10,6,0,0,492.txt
0,0,0,0,0,0,13,0,0,16,0,0,17,16,19,17,13,8,0,8,8,8,8,23,25,18,0,0,0,24,11,30,2,13,6,4,4,6,23,24,8,15,20,5,13,5,10,6,0,0,494.txt
0,11,5,4,8,5,22,27,21,20,11,21,11,28,24,29,29,21,28,25,12,14,16,17,21,30,19,19,25,19,9,26,8,12,29,24,24,2,21,23,7,15,20,13,9,3,15,20,14,21,496.txt
0,0,0,0,0,0,13,0,0,16,0,11,17,16,19,17,13,8,0,8,8,8,8,23,25,18,0,0,0,24,22,4,30,0,6,4,4,1,1,1,23,22,19,24,30,21,23,29,6,5,498.txt
0,0,0,0,0,0,13,0,0,16,0,11,28,18,21,17,13,8,0,8,15,0,28,22,24,0,0,0,0,24,22,30,30,0,0,0,0,9,0,0,0,22,20,24,30,3,2,26,4,10,500.txt
0,0,0,0,0,0,13,0,0,16,0,11,18,17,20,18,11,8,0,8,9,9,9,8,8,18,0,0,0,24,16,4,16,30,6,26,18,6,23,23,4,15,4,4,4,19,11,26,5,11,502.txt
0,0,0,0,0,0,13,0,0,16,0,11,17,16,19,17,13,1,0,1,8,8,8,23,25,18,0,0,0,24,4,8,12,8,6,4,4,6,0,0,23,23,20,0,0,13,12,5,5,11,503.txt
0,0,0,0,0,0,13,0,0,16,20,11,18,17,20,17,13,19,15,19,9,9,9,22,24,10,9,15,30,1,4,8,23,8,6,26,18,18,15,14,8,15,20,4,4,17,11,28,13,11,505.txt
0,0,0,0,0,0,13,0,0,16,0,11,17,16,19,17,13,8,0,8,8,8,8,23,25,18,0,0,0,24,22,4,30,0,6,4,4,6,0,0,23,22,20,24,30,7,12,11,7,5,507.txt
0,0,0,0,0,0,13,0,0,16,25,11,17,16,19,17,13,8,16,8,8,8,8,23,25,4,5,25,30,28,9,4,6,30,6,4,4,18,8,9,5,15,20,13,11,1,19,16,10,18,510.txt
0,0,0,0,0,0,13,0,0,16,5,11,17,16,19,17,13,8,10,8,8,8,8,29,26,6,7,8,30,8,10,3,7,2,6,4,4,14,16,29,6,16,20,5,7,29,14,27,23,19,513.txt
0,0,0,0,0,0,13,0,0,16,0,11,17,16,19,18,11,8,0,8,8,8,8,23,25,18,0,0,0,24,22,30,30,0,6,4,4,18,8,9,23,22,4,24,30,3,5,3,2,2,516.txt
0,0,0,0,0,0,13,0,0,16,0,11,17,16,19,17,13,8,0,8,8,8,8,23,25,18,14,17,0,20,16,30,16,30,6,4,4,6,0,0,5,3,20,4,4,4,11,26,13,13,518.txt
30,29,1,22,18,13,3,3,28,5,25,30,7,5,4,9,15,20,26,13,10,10,13,9,12,21,25,16,30,8,20,16,21,23,11,12,30,4,9,16,16,11,14,26,23,12,29,16,30,24,521.txt
30,29,16,30,10,12,9,7,5,14,20,30,14,22,4,19,6,20,11,24,11,11,29,6,27,27,28,20,19,12,21,20,23,14,1,7,30,28,14,29,27,21,26,20,25,24,22,30,25,30,524.txt
0,0,0,0,0,0,13,0,0,16,0,11,17,16,19,17,13,4,0,6,0,0,9,8,8,19,4,4,3,4,3,5,3,15,0,4,4,9,0,0,23,22,20,24,30,7,12,12,5,21,527.txt
0,0,0,0,0,0,13,0,0,16,0,11,17,16,19,17,13,8,0,8,8,8,8,23,25,0,0,0,0,24,22,30,30,0,19,4,4,9,0,0,23,22,20,24,30,3,10,6,0,0,529.txt
0,0,0,0,0,0,13,0,0,16,0,11,17,16,19,17,13,8,0,8,8,8,8,23,25,18,0,0,0,24,9,26,16,30,6,4,4,6,0,0,7,15,20,4,4,3,11,27,5,11,530.txt
0,0,0,0,0,0,13,0,0,16,0,11,17,16,19,17,13,8,0,8,8,8,8,23,25,18,0,0,0,24,22,26,30,0,6,4,4,6,0,0,23,22,20,24,30,7,12,21,7,14,532.txt
0,0,0,0,0,0,13,0,0,16,0,11,17,16,19,17,13,8,0,8,8,8,8,23,25,18,0,0,0,24,22,30,30,0,6,4,4,6,23,5,23,22,20,24,30,3,12,26,5,11,534.txt
0,0,0,0,0,0,13,0,0,16,0,11,17,16,19,17,13,8,6,8,8,8,8,23,25,12,12,13,20,22,22,26,30,0,6,4,4,3,7,17,23,22,20,24,30,3,1,11,1,5,536.txt
0,0,0,0,0,0,13,0,0,16,0,11,17,16,19,17,13,8,0,8,8,8,8,23,25,18,0,0,0,24,22,26,30,0,6,4,4,6,0,0,23,22,20,24,30,3,23,11,30,24,538.txt
0,0,0,0,0,0,13,0,0,16,0,11,17,16,19,17,13,8,0,8,8,8,8,23,25,18,0,0,0,24,22,26,30,0,6,4,4,6,0,0,23,23,20,0,0,5,5,3,2,2,541.txt
0,0,0,0,0,0,13,0,0,16,0,11,17,16,19,17,13,8,0,8,8,8,8,23,25,18,0,0,0,24,22,26,30,0,6,4,4,6,0,0,23,22,20,24,30,3,5,3,2,2,543.txt
0,0,0,0,0,0,13,0,0,16,0,11,18,17,21,17,13,8,0,8,9,9,28,22,24,18,0,0,0,24,8,30,16,30,6,0,18,6,2,23,8,15,20,13,9,3,10,6,0,0,545.txt
0,0,0,0,0,0,13,0,0,16,20,2,17,16,19,17,13,8,16,8,8,8,8,23,25,22,29,16,12,8,9,26,16,30,6,4,4,18,8,9,5,15,20,13,9,3,22,7,25,27,549.txt
0,0,0,0,0,0,13,0,0,16,0,11,17,16,19,17,13,8,0,8,8,8,8,23,25,18,0,0,0,24,16,4,16,30,6,4,4,6,0,0,8,15,20,13,9,19,0,0,20,8,551.txt
0,0,0,0,0,0,13,0,0,16,0,11,17,16,19,17,13,8,0,8,8,8,8,23,25,18,0,0,0,24,22,30,30,0,6,4,4,6,0,0,23,22,20,24,30,3,12,11,5,11,554.txt
0,0,0,0,0,0,13,0,0,16,0,11,17,16,19,18,11,8,0,8,8,8,8,23,25,18,0,0,0,24,9,30,14,30,6,4,4,6,0,0,7,15,4,13,9,3,11,30,5,11,557.txt
0,0,0,0,0,0,13,0,0,16,0,11,17,16,19,17,13,8,0,8,8,8,8,23,25,18,0,0,0,24,22,26,30,0,6,4,4,6,0,0,23,22,20,24,30,3,10,6,0,0,558.txt
0,0,0,0,0,0,13,0,0,16,0,11,17,16,19,18,11,8,0,8,8,8,8,23,25,0,0,0,0,24,11,30,16,30,19,4,4,9,0,0,14,15,4,13,10,19,11,8,22,13,561.txt
10,9,1,10,4,4,4,3,28,7,4,23,24,23,14,3,3,12,26,19,16,30,18,30,5,10,9,1,12,12,3,7,21,7,26,11,30,3,7,26,12,10,10,11,18,10,7,19,22,11,564.txt
0,11,21,4,8,5,22,27,26,28,2,18,11,12,15,26,29,21,18,25,13,14,16,18,18,30,19,29,0,19,10,4,16,12,29,23,16,2,21,5,5,15,20,13,9,19,15,27,23,19,566.txt
0,0,0,0,0,0,13,0,0,16,0,2,17,16,19,17,13,8,0,8,8,8,8,23,25,18,0,0,0,24,11,30,8,30,6,4,4,6,23,23,8,15,20,13,9,3,10,6,0,0,568.txt
0,0,0,0,0,0,13,0,0,16,0,11,17,16,19,17,13,8,0,8,8,8,8,23,25,18,0,0,0,24,11,26,8,30,6,4,4,6,0,0,8,15,20,13,10,3,10,6,20,8,572.txt
0,0,0,0,0,0,13,0,0,16,0,11,17,16,19,18,11,8,0,8,8,8,8,23,25,18,0,0,0,24,8,30,16,30,6,4,4,6,0,0,5,15,4,13,9,3,5,3,2,2,574.txt
0,0,0,0,0,0,13,0,0,16,0,11,17,16,19,17,13,8,0,8,8,8,8,23,25,18,0,0,0,24,22,4,30,0,6,4,4,6,0,0,23,22,20,24,30,19,12,11,5,11,576.txt
0,0,0,0,0,0,13,0,0,16,25,11,17,16,19,17,13,8,6,8,8,8,8,23,25,5,6,25,7,28,22,30,30,0,6,4,4,1,8,9,23,22,20,24,30,3,23,11,26,30,578.txt
0,0,27,28,4,3,3,12,1,7,8,30,15,5,14,19,1,16,6,19,22,26,4,7,28,10,9,25,23,28,4,8,13,8,0,8,30,15,28,17,23,22,20,24,30,7,12,5,5,11,580.txt
0,0,0,0,0,0,13,0,0,16,0,11,17,16,19,17,13,4,0,1,8,8,8,23,25,18,0,0,0,24,1,1,23,1,6,4,4,6,0,0,23,22,20,24,30,11,26,21,6,1,582.txt
0,0,0,0,0,0,13,0,0,16,8,11,17,16,19,17,13,8,6,8,8,8,8,23,25,6,7,10,7,8,22,4,30,0,6,4,4,18,8,9,23,22,20,24,30,21,5,3,2,2,584.txt
30,29,11,10,10,19,1,3,3,8,0,7,3,4,5,15,21,4,0,1,3,3,3,30,3,18,0,0,0,24,3,7,25,7,1,7,5,6,23,23,11,7,9,15,25,22,7,30,13,11,586.txt
0,0,0,0,0,0,13,0,0,16,0,11,17,16,19,17,13,8,0,8,8,8,8,23,25,18,0,0,0,24,8,30,16,30,6,4,4,6,0,0,5,15,20,13,12,3,5,3,2,2,588.txt
0,0,0,0,0,0,13,0,0,16,0,11,17,16,19,17,13,8,0,8,8,8,8,23,25,18,0,0,0,24,9,4,16,30,6,4,4,6,0,0,6,15,20,13,9,19,5,3,2,2,591.txt
0,0,0,0,0,0,13,0,0,16,0,11,17,16,19,17,13,8,0,8,8,8,8,23,25,18,0,0,0,24,11,30,16,30,6,4,4,6,0,0,5,15,20,13,9,3,5,3,2,2,594.txt
0,0,0,0,0,0,13,0,0,16,8,11,18,17,20,17,13,4,6,1,8,8,8,23,25,6,7,25,15,28,1,1,9,1,6,26,18,22,10,14,23,22,20,24,30,7,23,19,6,1,596.txt
0,0,0,0,0,0,13,0,0,16,8,11,17,16,19,17,13,8,6,8,8,8,8,0,0,12,12,13,20,22,22,4,30,0,6,4,4,18,8,9,23,22,20,24,30,20,5,3,2,2,598.txt
0,0,0,0,0,0,13,0,0,16,0,11,17,16,19,17,13,8,0,8,8,8,8,23,25,18,0,0,0,24,22,26,30,0,6,4,4,6,0,0,23,22,20,24,30,3,5,3,2,2,600.txt
0,0,0,0,0,0,13,0,0,16,8,11,17,16,19,17,13,8,6,8,8,8,8,23,25,29,30,1,23,8,22,4,30,0,6,4,4,18,8,9,23,22,20,24,30,19,12,11,5,11,603.txt
0,0,0,0,0,0,13,0,0,16,0,11,17,16,19,17,13,8,0,8,8,8,8,23,25,18,0,0,0,24,22,30,30,0,6,4,4,6,0,0,23,22,20,24,30,3,12,30,22,9,604.txt
0,0,0,0,0,0,13,0,0,16,0,11,8,10,20,18,11,8,0,8,0,0,9,22,24,0,0,0,0,24,22,30,30,0,0,26,18,0,0,0,0,22,4,24,30,3,10,6,0,0,606.txt
0,0,0,0,0,0,13,0,0,16,0,11,17,16,19,17,13,8,0,8,8,8,8,23,25,18,0,0,0,24,22,26,30,0,6,4,4,6,0,0,23,22,20,24,30,3,28,11,30,30,607.txt
0,0,0,0,0,0,0,0,0,16,0,11,17,16,19,17,13,8,0,8,8,8,8,23,25,0,0,0,0,24,22,26,30,0,19,4,4,9,0,0,23,22,20,24,30,5,5,3,2,2,613.txt
0,0,0,0,0,0,13,0,0,16,0,11,17,16,19,17,13,8,0,8,8,8,8,23,25,18,0,0,0,24,22,26,30,0,6,4,4,6,0,0,23,22,20,24,30,3,5,3,2,2,615.txt
0,0,0,0,0,0,13,0,0,16,0,11,17,16,19,17,13,8,0,8,8,8,8,23,25,18,0,0,0,24,22,30,30,0,6,4,4,6,0,0,23,22,20,24,30,3,10,6,20,17,618.txt
0,0,0,0,0,0,13,0,0,16,0,11,17,16,19,17,13,8,0,8,8,8,8,21,23,18,0,0,0,24,22,26,30,0,6,4,4,6,0,0,23,22,20,24,30,3,10,6,24,8,621.txt
0,0,16,10,10,10,5,3,3,9,20,19,25,5,4,15,21,16,6,24,6,6,11,30,9,24,11,20,7,8,1,5,3,1,4,14,30,13,14,17,19,26,20,15,6,7,4,12,6,30,623.txt
30,29,16,15,10,10,21,7,28,14,20,30,14,9,4,15,17,20,27,24,11,11,30,30,27,27,28,20,10,15,21,14,24,29,26,7,30,17,18,29,28,11,26,14,25,24,22,18,25,25,624.txt
0,0,0,0,0,0,13,0,0,16,8,11,17,16,19,17,13,4,6,4,8,8,8,23,25,12,12,13,17,22,6,16,22,24,6,4,4,18,8,9,23,22,20,24,30,7,23,11,30,5,627.txt
0,0,0,0,0,0,13,0,0,16,0,11,17,16,19,17,13,8,0,8,8,8,8,23,25,18,0,0,0,24,9,26,8,30,6,4,4,6,21,23,8,15,20,13,12,3,0,6,20,8,628.txt
0,0,0,0,0,0,13,0,0,16,0,11,8,10,0,17,13,8,0,8,0,17,0,23,25,0,0,0,0,24,22,30,30,0,0,0,18,9,0,0,23,22,20,24,30,3,10,6,0,0,629.txt
22,29,1,28,10,9,3,7,30,6,20,24,14,24,3,4,12,3,13,27,11,11,30,6,28,6,7,15,16,13,15,6,4,18,16,15,10,17,29,30,30,6,27,16,6,29,27,13,27,27,631.txt
0,0,0,0,0,0,13,0,0,16,0,3,17,16,19,17,13,8,0,8,8,8,8,23,25,18,14,17,0,20,9,4,11,13,6,4,4,6,20,5,21,15,20,4,4,20,11,18,23,19,633.txt
0,0,0,0,0,0,13,0,0,16,0,11,17,16,19,17,13,8,0,8,8,8,8,23,25,18,0,0,0,24,22,30,30,0,6,4,4,6,0,0,23,22,20,24,30,3,26,12,30,30,635.txt
0,0,0,0,0,0,13,0,0,16,0,11,17,16,19,17,13,8,0,8,8,8,8,23,25,18,0,0,0,24,22,26,30,0,6,4,4,6,0,0,23,22,20,24,30,3,12,11,7,14,637.txt
0,0,17,4,8,5,22,23,16,28,11,12,11,12,15,30,2,8,18,8,27,21,23,17,18,30,27,19,0,29,9,4,6,13,29,23,17,2,21,22,22,17,20,13,9,19,5,2,2,2,642.txt
0,0,0,0,0,0,13,0,0,16,0,11,17,16,19,17,13,8,0,8,8,8,8,21,23,18,0,0,0,25,22,4,30,0,6,4,4,6,0,0,23,22,20,24,30,19,10,6,0,0,645.txt
29,9,1,28,18,13,3,12,30,14,20,22,10,24,4,4,10,20,13,27,16,30,19,6,10,11,10,8,21,8,15,20,20,18,9,19,30,7,12,29,26,11,23,12,15,28,22,9,25,27,647.txt
0,0,0,0,0,0,13,0,0,16,0,11,17,16,19,17,13,8,0,8,8,8,8,23,25,18,0,0,0,24,22,30,30,0,6,4,4,6,21,4,23,22,20,24,30,3,2,20,4,10,650.txt
0,0,0,0,0,0,13,0,0,16,0,11,17,16,19,17,13,8,0,8,8,8,8,23,25,18,0,0,0,24,9,26,7,30,6,4,4,6,0,0,8,15,20,13,9,5,9,4,20,8,652.txt
0,0,0,0,0,0,13,0,0,16,20,11,17,16,19,17,13,8,12,8,8,8,8,23,25,22,29,10,12,1,8,30,2,30,19,4,4,1,1,1,14,15,3,13,12,3,10,6,0,0,654.txt
12,11,17,4,8,5,22,27,26,28,2,15,11,12,24,26,29,21,18,25,13,15,17,18,2,30,19,29,2,19,9,26,8,6,30,24,25,24,22,2,8,4,2,3,10,3,15,20,14,20,657.txt
0,0,0,0,0,0,13,0,0,16,20,11,17,16,19,17,13,20,13,19,8,8,8,23,25,10,9,15,15,8,1,5,3,1,6,4,4,18,8,9,7,15,20,4,4,29,4,18,30,30,658.txt
0,0,0,0,0,0,13,0,0,16,0,11,17,16,19,17,13,8,0,8,8,8,8,23,25,18,0,0,0,24,22,26,30,0,6,4,4,18,8,9,23,22,20,24,30,0,5,3,2,2,662.txt
0,0,0,0,0,0,13,0,0,16,0,11,17,16,19,17,13,8,0,8,8,8,8,23,25,18,0,0,0,24,22,26,30,0,6,4,4,6,0,0,23,22,20,24,30,3,5,3,2,2,663.txt
0,0,0,0,0,0,13,0,0,16,0,11,17,16,19,17,13,8,0,8,8,8,8,23,25,18,0,0,0,24,22,26,30,0,6,4,4,6,0,0,23,22,20,24,30,3,2,11,4,10,665.txt
0,0,0,0,0,0,13,0,0,16,0,11,17,16,19,17,13,8,0,8,8,8,8,23,25,18,0,0,0,24,22,26,30,0,6,4,4,6,0,0,23,22,20,24,30,3,5,3,2,2,669.txt
0,0,0,0,0,0,13,0,0,16,0,11,17,16,19,17,13,8,0,8,8,8,8,23,25,18,0,0,0,24,22,26,30,0,6,4,4,6,0,0,23,22,20,24,30,3,23,11,30,5,671.txt
0,0,0,0,0,0,13,0,0,16,0,11,17,16,19,17,13,8,0,8,8,8,8,23,25,18,0,0,0,24,22,26,30,0,6,4,4,6,21,4,23,22,20,24,30,5,12,16,10,13,673.txt
0,0,0,0,0,0,13,0,0,16,0,11,17,16,19,17,13,8,0,8,8,8,8,23,25,0,0,0,0,24,22,30,30,0,19,4,4,9,0,0,23,22,20,24,30,3,12,5,5,11,675.txt
30,9,1,26,18,13,26,4,5,14,25,23,24,25,14,19,8,20,11,19,4,5,27,4,1,11,10,16,29,1,3,7,23,7,20,17,30,7,7,12,10,27,8,10,19,24,7,27,23,19,678.txt
0,0,0,0,0,0,0,0,0,16,0,17,17,16,19,18,11,8,0,8,8,8,8,23,25,18,0,0,0,24,22,30,30,0,6,4,4,6,0,0,23,22,3,24,30,3,2,26,4,10,680.txt
0,0,0,0,0,0,13,0,0,16,0,11,17,16,19,17,13,8,0,8,8,8,8,21,23,18,0,0,0,24,22,30,30,0,6,4,4,6,0,0,23,22,20,24,30,3,0,6,0,0,683.txt
0,0,0,0,0,0,13,0,0,16,25,11,17,16,19,17,13,8,11,8,8,8,8,21,23,6,7,25,7,28,22,26,30,0,6,4,4,18,8,9,23,22,20,24,30,3,5,3,2,2,685.txt
0,0,0,0,0,0,13,0,0,16,0,11,17,16,19,17,13,8,0,8,8,8,8,23,25,18,0,0,0,24,22,30,30,0,6,4,4,18,1,1,23,22,20,24,30,3,10,6,0,0,687.txt
0,0,0,0,0,0,13,0,0,16,0,11,18,17,20,17,13,8,0,8,9,9,9,22,24,18,0,0,0,24,22,30,30,0,6,26,18,6,0,0,0,22,20,24,30,3,10,6,20,17,689.txt
0,0,0,0,0,0,13,0,0,16,0,11,17,16,19,17,13,8,0,8,8,8,8,23,25,18,0,0,0,24,9,26,8,30,6,4,4,6,0,0,5,15,20,13,9,5,11,16,23,18,691.txt
30,9,1,10,4,13,3,7,6,7,22,23,24,5,4,3,3,20,23,19,16,30,18,30,7,10,9,1,15,15,21,20,21,25,12,12,30,8,7,29,12,11,10,11,18,22,22,16,25,30,695.txt
0,0,0,0,0,0,13,0,0,16,0,11,8,10,0,17,13,1,0,1,0,0,0,22,24,0,0,0,0,24,4,8,12,8,0,0,0,9,23,4,8,15,3,3,10,11,2,26,4,10,696.txt
0,0,16,1,12,19,1,4,4,8,0,20,3,5,5,19,1,4,0,1,22,26,11,1,30,18,0,0,0,24,4,8,23,8,1,7,5,6,0,0,29,7,20,15,25,22,12,30,5,13,700.txt
0,0,0,0,0,0,13,0,0,16,0,11,18,17,20,17,13,8,0,8,9,9,9,22,24,18,0,0,0,24,22,26,30,0,6,26,18,6,0,0,0,22,20,24,30,27,12,12,5,5,703.txt
30,9,1,10,4,19,1,3,28,7,22,23,24,8,5,3,3,4,23,1,16,30,27,30,7,10,9,1,12,30,27,25,3,29,16,5,5,30,7,12,12,26,10,11,6,24,22,27,25,30,705.txt
0,0,0,0,0,0,13,0,0,16,0,11,17,16,19,17,13,8,0,8,8,8,8,23,25,18,0,0,0,24,22,30,30,0,6,4,4,6,0,0,23,22,20,24,30,3,12,5,5,11,706.txt
12,11,22,4,8,5,22,30,21,23,2,15,13,19,24,26,29,30,28,2,27,21,23,18,2,30,27,29,24,2,11,19,14,6,30,24,2,2,22,5,2,4,18,13,29,2,29,18,6,30,709.txt
12,11,21,4,8,5,22,27,21,28,2,15,11,12,24,30,2,21,28,25,13,14,16,25,18,30,19,29,4,19,9,26,16,5,25,23,25,2,21,23,5,4,22,13,9,19,5,3,2,2,711.txt
0,0,0,0,0,0,13,0,0,16,0,11,17,16,19,17,13,8,0,8,8,8,8,23,25,18,0,0,0,24,9,4,16,30,6,4,4,6,0,0,5,15,20,4,4,19,5,3,2,2,712.txt
0,0,0,0,0,0,13,0,0,16,0,11,17,16,19,17,13,25,0,29,8,8,8,23,25,18,14,17,25,20,11,4,16,30,6,4,4,6,0,0,5,15,20,13,9,20,11,18,23,19,713.txt
0,0,0,0,0,0,13,0,0,0,8,11,0,0,19,0,0,8,6,8,8,8,8,23,25,12,12,13,20,22,22,26,30,0,6,4,4,18,8,9,23,22,20,24,30,0,5,3,2,2,716.txt
0,0,0,0,0,0,13,0,0,16,0,2,17,16,19,17,13,8,0,8,8,8,8,23,25,0,4,4,0,4,11,4,16,30,19,4,4,9,22,5,2,15,3,13,9,19,11,26,13,11,722.txt
0,0,0,0,0,0,13,0,0,16,0,11,17,16,19,17,13,8,0,8,8,8,8,23,25,18,0,0,0,24,22,30,30,0,6,4,4,6,0,0,23,22,20,24,30,3,5,3,2,2,724.txt
0,0,0,0,0,0,13,0,0,16,0,11,17,16,19,17,13,8,0,8,8,8,8,23,25,18,0,0,0,24,22,4,30,0,6,4,4,6,0,0,23,22,20,24,30,21,5,3,2,2,727.txt
0,0,0,0,0,0,13,0,0,16,0,11,17,16,19,17,13,8,0,8,8,8,8,23,25,18,0,0,0,24,22,26,30,0,6,4,4,6,0,0,23,23,20,0,0,19,12,20,22,11,728.txt
0,0,0,0,0,0,13,0,0,16,0,11,17,16,19,17,13,8,0,8,8,8,8,23,25,18,0,0,0,24,22,30,30,0,6,4,4,6,0,0,23,22,20,24,30,29,2,11,4,10,732.txt
0,0,0,0,0,0,13,0,0,16,0,11,17,16,19,17,13,8,0,8,8,8,8,23,25,0,0,0,0,24,22,26,30,0,19,4,4,0,0,0,23,22,20,24,30,3,12,5,5,11,734.txt
0,0,1,28,4,3,3,4,1,7,25,20,25,5,14,19,1,20,11,19,22,22,4,6,28,10,9,25,15,28,4,8,9,8,14,8,30,22,10,18,27,9,20,15,1,22,12,5,7,14,735.txt
0,0,0,0,0,0,13,0,0,16,0,2,18,17,20,17,13,8,0,8,8,8,8,23,25,18,0,0,0,24,11,4,14,30,6,26,18,6,23,4,2,15,20,13,10,19,11,21,13,11,737.txt
0,0,0,0,0,0,13,0,0,16,0,11,17,16,19,17,13,8,0,8,8,8,8,23,25,0,0,0,0,24,22,26,30,0,19,4,4,9,0,0,23,22,20,24,30,3,12,5,5,11,738.txt
0,0,0,0,0,0,13,0,0,16,4,11,17,16,19,17,13,8,12,8,8,8,8,23,25,6,7,10,30,10,8,4,2,13,19,4,4,1,8,9,14,3,20,13,10,19,5,3,2,2,741.txt
12,2,21,4,8,5,22,27,21,23,2,15,11,29,24,2,2,18,28,22,12,15,17,18,2,30,16,29,24,17,11,19,16,6,30,24,26,2,22,22,4,4,22,13,9,20,0,0,18,8,743.txt
0,0,0,0,0,0,13,0,0,16,0,11,17,16,19,17,13,8,13,8,8,8,8,23,25,4,5,11,5,1,8,4,16,30,6,4,4,18,11,10,14,15,20,13,10,19,2,5,4,10,747.txt
0,0,0,0,0,0,13,0,0,16,0,11,17,16,19,17,13,25,0,29,8,8,8,23,25,18,0,0,25,24,22,26,30,0,6,4,4,6,0,0,23,22,20,24,30,3,12,20,5,11,748.txt
0,0,0,0,0,0,13,0,0,16,0,11,17,16,19,17,13,8,0,8,8,8,8,23,25,18,0,0,0,24,0,30,0,0,6,4,4,6,0,0,23,22,20,24,30,3,12,5,5,13,751.txt
30,29,1,21,18,13,3,3,28,12,20,30,14,5,4,11,24,28,25,14,11,11,13,9,27,27,29,20,16,8,20,16,20,26,12,19,30,14,30,29,30,11,29,20,15,24,22,15,25,30,755.txt
0,0,0,0,0,0,13,0,0,16,0,2,17,16,19,17,13,8,0,8,8,8,8,23,25,18,0,0,0,24,10,4,16,30,6,4,4,6,0,0,2,15,20,4,4,19,10,0,0,0,756.txt
0,0,27,1,4,19,1,4,1,8,8,8,25,5,5,6,1,4,6,6,22,26,4,14,27,4,5,24,23,27,4,8,9,8,6,1,5,17,10,14,23,22,20,24,30,7,2,29,4,10,760.txt
0,0,0,0,0,0,13,0,0,16,0,11,17,16,19,17,13,8,0,8,8,8,8,23,25,18,0,0,0,24,9,26,16,30,6,4,4,6,0,0,5,15,20,13,9,3,5,3,2,2,765.txt
0,0,0,0,0,0,13,0,0,16,0,11,17,16,19,17,13,8,0,8,8,8,8,23,25,18,0,0,0,24,8,4,8,13,6,4,4,6,0,0,6,15,20,3,12,20,0,6,8,8,766.txt
0,0,0,0,0,0,13,0,0,16,0,11,17,16,19,17,13,8,0,8,8,8,8,23,25,18,0,0,0,24,22,30,30,0,6,4,4,6,0,0,23,22,20,24,30,3,12,5,7,13,768.txt
0,0,0,0,0,0,13,0,0,16,0,2,17,16,19,17,13,8,0,8,8,8,8,23,25,18,0,0,0,24,9,4,16,30,6,4,4,6,21,5,14,15,3,13,11,19,11,26,22,11,771.txt
0,0,0,0,0,0,13,0,0,16,0,11,17,16,19,17,13,8,0,8,8,8,8,23,25,0,0,0,0,24,11,30,16,30,19,4,4,9,0,0,5,3,20,13,9,3,11,26,22,9,772.txt
0,0,0,0,0,0,13,0,0,16,8,11,17,16,19,17,13,8,6,8,8,8,8,23,25,12,12,13,17,22,22,26,30,0,6,4,4,1,8,9,23,22,20,24,30,3,5,3,2,2,773.txt
0,0,0,0,0,0,13,0,0,16,0,11,17,16,19,17,13,8,0,8,8,8,8,23,25,0,0,0,0,24,8,4,16,30,19,4,4,9,0,0,14,15,20,13,9,2,2,21,4,10,775.txt
0,0,0,0,0,0,13,0,0,16,0,11,17,16,19,17,13,8,0,8,8,8,8,23,25,18,0,0,0,24,16,30,16,30,6,4,4,6,0,0,5,15,20,4,4,3,5,3,2,2,777.txt
0,0,0,0,0,0,13,0,0,16,25,11,17,16,19,17,13,1,16,1,8,8,8,23,25,23,28,5,30,5,4,8,25,8,6,4,4,14,15,29,5,15,20,13,11,24,11,27,10,19,779.txt
0,0,0,0,0,0,13,0,0,16,0,11,17,16,19,17,13,8,0,8,8,8,8,23,25,18,0,0,0,24,22,30,30,0,6,4,4,6,0,0,23,22,20,24,30,3,4,5,30,24,781.txt
0,0,0,0,0,0,13,0,0,16,0,11,17,16,19,17,13,8,0,8,8,8,8,23,25,18,0,0,0,24,22,30,30,0,6,4,4,6,0,0,23,22,20,24,30,3,30,20,26,24,785.txt
0,0,0,0,0,0,13,0,0,16,0,11,17,16,19,17,13,8,0,8,8,8,8,23,25,18,0,0,0,24,22,30,30,0,6,4,4,6,0,0,23,22,20,24,30,3,10,6,0,0,787.txt
0,0,16,1,10,19,1,4,6,8,0,7,3,5,5,19,1,4,0,7,3,3,3,15,3,18,0,0,0,24,4,8,25,8,1,7,8,6,0,0,17,7,20,21,28,1,11,20,5,11,790.txt
0,0,0,0,0,0,13,0,0,16,0,11,17,16,19,17,13,8,0,8,8,8,8,23,25,18,0,0,0,24,9,4,16,30,6,4,4,6,0,0,14,15,20,13,9,19,11,22,14,9,792.txt
0,0,0,0,0,0,13,0,0,16,0,11,17,16,19,17,13,8,0,8,8,8,8,23,25,18,0,0,0,24,22,30,30,0,6,4,4,6,0,0,23,22,20,24,30,5,12,20,5,11,796.txt
0,0,0,0,0,0,13,0,0,16,0,11,17,16,19,17,13,8,0,8,8,8,8,23,25,18,0,0,0,24,22,26,30,0,6,4,4,6,0,0,23,22,20,24,30,3,12,11,23,19,800.txt
0,0,0,0,0,0,13,0,0,16,8,11,17,16,19,17,13,16,6,19,8,8,8,23,25,1,1,25,23,28,21,16,9,25,6,4,4,21,28,17,23,22,20,24,30,7,26,11,30,24,802.txt
0,0,1,28,4,19,1,4,6,7,22,23,24,5,5,19,1,4,9,6,16,30,18,6,10,10,9,5,15,5,3,7,1,7,12,8,8,7,7,8,12,10,20,11,18,10,13,18,23,9,806.txt
0,0,0,0,0,0,13,0,0,16,0,11,17,16,19,17,13,8,0,8,8,8,8,23,25,18,0,0,0,24,8,26,8,13,6,4,4,6,0,0,14,15,20,13,9,3,5,3,2,2,807.txt
0,0,0,0,0,0,13,0,0,16,0,11,17,16,19,17,13,8,0,8,8,8,8,23,25,0,0,0,0,24,22,30,30,0,19,4,4,9,0,0,23,22,20,24,30,3,2,26,4,10,810.txt
0,0,0,0,0,0,13,0,0,16,0,11,17,16,19,18,11,8,0,8,8,8,8,23,25,18,0,0,0,25,22,4,30,0,6,4,4,6,0,0,23,22,4,24,30,19,5,3,2,2,813.txt
30,9,1,28,4,19,17,7,6,7,22,23,24,23,5,19,8,4,11,6,16,30,18,1,7,10,9,1,13,13,20,20,19,23,22,12,8,8,7,29,12,11,10,11,22,1,22,17,25,30,816.txt
0,0,0,0,0,0,13,0,0,16,25,11,17,16,19,17,13,8,16,8,8,8,8,21,23,10,9,15,13,10,9,26,7,13,6,4,4,18,8,9,5,15,20,13,12,26,4,17,30,24,817.txt
0,0,0,0,0,0,13,0,0,16,0,11,17,16,19,17,13,8,0,8,8,8,8,23,25,18,0,0,0,24,9,4,8,30,6,4,4,6,21,4,5,15,20,13,9,19,5,3,2,2,818.txt
0,0,0,0,0,0,13,0,0,16,0,2,17,16,19,17,13,8,0,8,8,8,8,0,0,18,0,0,0,25,9,4,8,13,6,4,4,6,0,0,14,15,20,13,9,19,8,3,3,7,821.txt
0,0,0,0,0,0,13,0,0,16,0,11,17,16,19,17,13,8,0,8,8,8,8,23,25,0,4,4,0,4,11,4,2,30,19,4,4,9,23,5,8,15,20,13,9,19,11,26,13,11,824.txt
0,0,0,0,0,0,13,0,0,16,0,11,17,16,19,17,13,8,0,8,8,8,8,23,25,18,0,0,0,24,22,26,30,0,6,4,4,6,0,0,23,22,20,24,30,3,5,3,2,2,827.txt
30,18,27,29,16,19,16,12,6,5,10,30,15,5,1,19,8,1,6,1,20,24,12,7,13,13,20,7,23,7,21,20,12,25,13,12,13,17,29,30,28,14,26,16,24,16,7,27,23,19,831.txt
0,0,0,0,0,0,13,0,0,16,27,11,17,16,19,17,13,8,6,8,8,8,8,23,25,12,12,13,20,22,22,30,30,0,6,4,4,18,8,9,23,22,20,24,30,3,23,11,30,5,832.txt
0,0,0,0,0,0,13,0,0,16,0,11,18,17,20,17,13,8,0,8,8,8,8,23,25,18,0,0,0,24,22,30,30,0,6,26,18,6,0,0,23,22,20,24,30,3,10,6,0,0,834.txt
0,0,0,0,0,0,13,0,0,16,0,11,17,16,19,17,13,8,0,8,8,8,8,23,25,18,0,0,0,24,22,26,30,0,6,4,4,6,0,0,23,22,20,24,30,3,12,11,5,11,836.txt
0,0,0,0,0,0,13,0,0,16,0,11,17,16,19,17,13,8,0,8,8,8,8,23,25,18,0,0,0,24,11,4,8,30,6,4,4,18,8,9,5,15,20,13,9,19,5,3,2,2,839.txt
0,0,1,10,4,13,3,9,12,4,25,30,16,5,4,3,17,20,27,27,20,24,4,30,29,4,5,15,30,12,21,20,22,25,13,16,30,15,18,14,28,11,29,14,24,29,26,18,30,25,842.txt
0,0,0,0,0,0,0,0,0,16,0,11,17,16,19,17,13,8,0,8,8,8,8,23,25,18,0,0,0,24,22,30,30,0,6,4,4,18,8,9,23,22,20,24,30,3,4,29,26,5,847.txt
12,11,17,4,8,5,22,27,21,18,2,11,11,12,24,30,2,21,18,25,13,14,16,18,18,30,19,29,24,19,22,26,30,0,2,23,25,25,24,5,23,22,17,24,30,3,5,3,2,2,851.txt
0,0,13,4,8,5,22,27,21,20,2,15,11,28,26,29,29,25,21,29,13,15,17,18,21,30,18,30,25,21,9,26,7,6,30,24,23,2,21,5,7,15,20,13,9,24,14,27,23,19,852.txt
0,0,1,10,4,19,13,0,0,7,25,11,17,5,5,17,13,4,9,1,8,8,8,30,25,26,11,5,15,5,30,16,21,24,6,4,4,21,15,8,5,15,20,13,9,11,21,20,21,9,855.txt
0,0,0,0,0,0,13,0,0,16,0,11,8,10,20,17,13,8,0,8,0,0,9,22,24,0,0,0,0,24,16,30,16,30,0,26,0,0,0,0,5,15,20,4,4,4,5,3,2,2,857.txt
0,0,0,7,0,0,13,0,0,16,3,28,19,18,21,17,13,5,6,5,15,17,28,8,8,3,3,3,1,3,1,1,12,1,0,0,0,17,30,30,0,24,19,29,30,8,4,12,6,16,859.txt
0,0,0,0,0,0,13,0,0,16,0,11,17,16,19,17,13,8,0,8,8,8,8,23,25,18,0,0,0,24,22,4,30,0,6,4,4,6,0,0,23,22,20,24,30,29,12,26,7,14,861.txt
0,0,0,0,0,0,13,0,0,16,0,2,17,16,19,17,13,8,0,8,8,8,8,23,25,18,0,0,0,24,8,4,16,30,6,4,4,6,24,5,24,15,20,4,4,19,5,3,2,2,864.txt
0,0,0,0,0,0,13,0,0,16,0,11,17,16,19,17,13,8,0,8,8,8,8,23,25,18,0,0,0,24,11,4,8,30,6,4,4,6,0,0,8,15,20,13,9,2,11,26,13,11,866.txt
0,0,0,0,0,0,13,0,0,16,0,11,17,16,19,17,13,8,0,8,8,8,8,23,25,18,14,17,0,20,22,26,30,0,6,4,4,6,0,0,23,22,20,24,30,7,12,11,7,14,868.txt
0,0,0,0,0,0,13,0,0,16,0,11,17,16,19,17,13,8,0,8,8,8,8,23,25,18,0,0,0,24,22,26,30,0,6,4,4,6,0,0,23,22,20,24,30,3,5,3,2,2,870.txt
0,0,0,0,0,0,13,0,0,16,0,11,17,16,19,17,13,8,0,8,8,8,8,23,25,18,0,0,0,24,8,4,2,30,6,4,4,6,0,0,14,3,20,13,9,9,2,26,4,10,872.txt
12,11,4,4,8,7,24,30,2,22,2,15,13,2,22,26,29,29,28,2,28,20,2,18,2,17,26,29,4,2,11,19,14,6,30,28,2,2,2,5,6,4,16,3,9,2,29,30,6,30,874.txt
0,0,0,0,0,0,13,0,0,16,0,11,17,16,19,17,13,8,0,8,8,8,8,23,25,18,0,0,0,24,22,30,30,0,6,4,4,6,0,0,23,22,20,24,30,3,5,3,2,2,879.txt
0,0,0,0,0,0,13,0,0,16,0,11,17,16,19,17,13,8,0,8,8,8,8,0,0,18,0,0,0,24,22,26,30,0,6,4,4,6,0,0,23,22,20,24,30,3,5,3,2,2,882.txt
12,11,17,4,8,5,22,27,21,28,2,2,11,12,25,29,29,2,28,2,27,21,23,17,18,30,27,19,2,29,9,4,16,30,30,23,24,25,21,23,14,4,22,13,9,19,30,19,30,30,884.txt
0,0,0,0,0,0,13,0,0,16,0,11,17,16,19,17,13,8,0,8,8,8,8,23,25,0,0,0,0,24,22,30,30,0,19,4,4,9,23,23,23,22,20,24,30,3,29,28,26,24,885.txt
0,0,0,0,0,0,13,0,0,16,0,11,17,16,19,17,13,8,0,8,8,8,8,23,25,18,0,0,0,24,8,30,8,30,6,4,4,6,0,0,5,15,20,13,12,3,5,3,2,2,886.txt
0,0,0,0,0,0,13,0,0,16,25,11,17,16,19,17,13,8,16,8,8,8,8,23,25,25,11,25,5,28,9,26,16,30,6,4,4,18,8,9,7,15,20,13,9,3,11,20,11,19,889.txt
0,0,0,0,0,0,13,0,0,16,4,11,17,16,19,17,13,8,16,8,8,8,8,23,25,10,9,12,15,8,8,4,16,30,6,4,4,18,8,9,22,15,20,4,4,19,5,3,2,2,891.txt
0,0,0,0,0,0,13,0,0,16,0,11,17,16,19,17,13,8,0,8,8,8,8,23,25,0,0,0,0,24,22,30,30,0,19,4,4,9,0,0,23,22,20,24,30,3,0,6,18,8,893.txt
12,11,23,4,8,5,22,30,24,20,2,15,13,2,30,26,29,29,2,2,12,15,17,13,2,2,16,2,24,17,11,3,2,6,30,28,2,24,2,2,4,4,16,3,7,2,15,21,22,20,896.txt
0,0,1,10,4,19,1,4,1,8,0,7,3,5,5,3,3,4,0,1,3,3,3,3,3,18,0,0,0,24,4,8,23,8,6,12,5,6,0,0,4,3,3,13,9,1,11,26,13,11,900.txt
0,0,27,28,4,19,13,0,0,7,8,11,17,5,5,17,13,4,6,6,8,8,8,15,25,4,5,25,23,28,4,8,9,8,6,4,4,21,28,14,23,22,20,24,30,7,12,11,7,14,902.txt
5,29,1,21,22,9,3,3,28,5,20,30,7,5,11,9,15,20,26,28,10,10,13,9,12,21,25,20,13,13,25,16,29,27,8,7,29,4,9,27,16,29,14,26,22,12,29,16,30,29,905.txt
12,11,0,0,0,0,13,0,0,16,0,11,17,16,19,17,13,29,0,2,8,8,8,23,25,18,0,0,24,24,9,30,8,6,6,4,4,6,21,4,18,4,17,6,9,3,29,18,30,30,907.txt
0,0,0,0,0,0,13,0,0,16,8,11,17,16,19,17,13,8,6,8,8,8,8,23,25,12,12,13,15,22,22,26,30,0,6,4,4,18,28,14,23,22,20,24,30,7,4,11,30,5,909.txt
18,11,25,4,8,7,24,30,24,22,2,17,13,2,22,26,29,18,20,22,12,15,17,18,2,17,16,29,24,17,11,0,2,6,30,25,2,24,25,5,4,4,16,3,11,27,15,30,22,20,911.txt
0,0,0,0,0,0,13,0,0,16,8,11,17,16,19,17,13,8,6,8,8,8,8,23,25,12,12,13,20,22,22,30,30,0,6,4,4,18,8,9,23,22,20,24,30,26,5,3,2,2,914.txt
30,29,16,29,10,23,17,17,6,14,20,20,7,23,27,19,8,5,13,7,11,11,30,6,27,4,5,20,30,8,13,23,21,16,1,7,13,4,9,29,25,11,24,16,25,24,22,14,25,26,917.txt
0,0,1,10,4,19,1,3,28,8,25,20,16,5,5,3,3,4,23,1,18,26,4,30,29,4,5,24,30,27,4,8,9,8,1,1,8,17,15,14,19,1,20,14,24,29,2,21,4,10,922.txt
0,0,0,0,0,0,13,0,0,16,0,11,17,16,19,17,13,8,0,8,8,8,8,23,25,18,0,0,0,24,22,4,30,0,6,4,4,6,0,0,23,22,20,24,30,19,5,3,2,2,924.txt
0,0,0,0,0,0,13,0,0,16,0,11,17,16,19,17,13,8,0,8,8,8,8,23,25,18,0,0,0,24,22,28,30,0,6,4,4,18,8,9,23,22,20,24,30,3,5,3,2,2,925.txt
0,0,0,0,0,0,13,0,0,16,25,11,17,16,19,17,13,1,1,1,8,8,8,23,25,1,1,25,30,28,6,14,9,10,6,4,4,21,15,14,5,15,20,3,9,1,11,20,13,11,926.txt
0,0,1,28,4,13,3,4,6,7,25,20,22,5,14,19,1,20,1,19,22,26,4,6,28,10,9,25,15,28,4,8,12,8,14,17,30,15,28,17,11,9,9,9,1,10,11,20,5,11,928.txt
0,0,0,0,0,0,13,0,0,16,0,11,17,16,19,17,13,8,0,8,8,8,8,23,25,18,0,0,0,24,22,29,30,0,6,4,4,6,0,0,23,22,20,24,30,3,12,5,5,11,930.txt
0,0,0,0,0,0,13,0,0,16,0,11,17,16,19,17,13,8,0,8,8,8,8,23,25,18,0,0,0,24,9,26,16,30,6,4,4,6,0,0,5,15,20,13,9,3,5,3,2,2,932.txt
5,9,16,22,22,10,6,3,28,5,22,30,14,24,4,12,20,27,24,18,11,11,13,9,27,29,30,1,30,13,12,22,29,17,22,10,30,17,14,16,30,11,28,26,21,11,24,15,30,30,935.txt
0,0,0,0,0,0,13,0,0,16,0,11,17,16,19,17,13,8,0,8,8,8,8,23,25,18,14,17,0,20,16,26,16,30,6,4,4,6,0,0,8,15,20,4,4,3,5,3,2,2,940.txt
0,0,0,0,0,0,13,0,0,16,0,11,17,16,19,17,13,8,0,8,8,8,8,23,25,18,0,0,0,24,22,30,30,0,6,4,4,6,0,0,23,22,20,24,30,3,12,12,5,11,942.txt
30,9,27,28,19,13,3,15,30,29,24,22,10,5,29,4,10,14,8,27,16,30,18,4,5,11,10,8,21,8,15,20,20,18,9,19,30,19,13,27,26,14,11,12,15,16,28,10,27,27,944.txt
0,0,0,0,0,0,13,0,0,16,0,11,17,16,19,17,13,8,0,8,8,8,8,23,25,18,0,0,0,24,22,26,30,0,6,4,4,6,0,0,23,22,20,24,30,3,5,3,2,2,946.txt
0,0,0,0,0,0,13,0,0,16,25,11,17,16,19,17,13,20,23,19,8,8,8,23,25,29,30,15,15,11,6,10,25,10,6,4,4,18,15,13,5,15,20,13,12,9,11,21,22,11,949.txt
0,0,0,0,0,0,13,0,0,16,0,11,17,16,19,17,13,8,0,8,8,8,8,23,25,18,0,0,0,24,22,30,30,0,6,4,4,6,0,0,23,22,20,24,30,3,10,6,0,0,951.txt
12,11,17,4,8,5,22,27,2,28,2,11,11,12,24,26,27,29,18,2,27,20,23,17,20,30,26,19,4,2,9,4,7,13,25,24,26,2,21,24,18,4,5,6,9,19,15,27,7,14,954.txt
0,0,0,0,0,0,13,0,0,16,8,11,17,16,19,17,13,8,6,8,24,19,21,23,25,12,12,13,7,22,22,26,30,0,7,6,9,16,1,1,23,22,20,24,30,26,0,6,20,8,956.txt
0,0,1,28,18,13,3,4,6,5,0,20,25,5,14,19,1,20,0,19,22,26,4,6,30,18,0,0,0,24,4,8,9,8,6,12,30,21,28,17,23,22,20,24,30,11,2,11,4,10,959.txt
0,0,0,0,0,0,13,0,0,16,0,11,17,16,19,17,13,8,0,8,8,8,8,23,25,18,0,0,0,24,8,26,8,30,6,4,4,6,23,4,5,15,20,13,9,3,5,3,2,2,961.txt
0,0,0,0,0,0,13,0,0,16,0,11,17,16,19,17,13,8,0,8,8,8,8,21,23,18,0,0,0,24,22,28,30,0,6,4,4,6,0,0,23,22,20,24,30,3,5,3,2,2,962.txt
12,11,17,4,23,7,24,30,2,22,20,15,12,13,22,26,29,29,12,2,28,21,2,18,2,6,7,20,30,1,11,19,2,13,30,24,26,26,11,10,6,4,22,3,29,19,10,6,24,17,964.txt
0,0,17,4,8,5,22,27,16,18,8,11,11,12,17,26,29,8,16,8,29,20,2,25,18,25,11,20,30,8,9,4,7,5,30,23,17,18,8,9,6,17,20,3,9,19,5,3,2,2,966.txt
0,0,0,0,0,0,13,0,0,16,0,11,17,16,19,17,13,8,0,8,8,8,8,23,25,18,0,0,0,24,9,4,16,30,6,4,4,6,0,0,14,15,20,13,9,19,5,3,2,2,968.txt
0,0,0,0,0,0,13,0,0,16,0,11,17,16,19,17,13,8,0,8,8,8,8,23,25,0,0,0,0,24,22,26,30,0,19,4,4,18,8,9,23,22,20,24,30,3,5,3,2,2,970.txt
0,0,0,0,0,0,13,0,0,16,8,11,17,16,19,17,13,8,6,8,8,8,22,23,25,6,7,10,15,8,22,26,30,0,6,4,4,18,8,9,3,5,6,7,5,3,5,3,2,2,974.txt
0,0,0,0,0,0,13,0,0,16,0,11,17,16,19,17,13,8,0,8,8,8,8,23,25,18,0,0,0,24,22,26,30,0,6,4,4,6,0,0,23,22,20,24,30,3,10,6,8,8,975.txt
0,0,0,0,0,0,13,0,0,16,0,11,17,16,19,17,13,20,0,28,8,8,8,23,25,18,0,0,0,24,24,20,29,27,6,4,4,6,21,23,5,15,19,4,4,18,13,16,10,18,979.txt
12,11,0,0,0,0,13,0,0,16,0,11,17,16,19,17,13,2,0,2,8,8,8,23,25,18,0,0,4,24,9,4,6,30,6,4,4,6,21,23,5,4,2,13,9,19,5,3,2,2,981.txt
0,0,0,0,0,0,13,0,0,16,0,11,17,16,19,17,13,8,0,8,8,8,8,23,25,18,0,0,0,24,22,30,30,0,6,4,4,6,0,0,23,22,20,24,30,3,12,21,5,11,987.txt
0,0,0,0,0,0,13,0,0,16,0,2,17,16,19,17,13,8,0,8,8,8,8,23,25,18,0,0,0,24,9,4,16,30,6,4,4,6,21,23,5,15,20,13,12,19,5,3,2,2,989.txt
30,18,27,28,5,1,17,12,6,5,0,5,3,23,1,20,8,1,0,1,3,3,3,27,3,18,0,0,3,24,18,24,12,22,12,13,12,6,0,0,17,12,15,16,23,14,7,11,23,5,994.txt
0,0,0,0,0,0,13,0,0,16,0,11,17,16,19,17,13,8,0,8,8,8,8,23,25,18,0,0,0,24,22,30,30,0,6,4,4,6,0,0,23,22,3,24,30,3,10,6,0,0,996.txt
0,0,0,0,0,0,13,0,0,16,0,11,17,16,19,17,13,8,0,8,8,8,8,23,25,0,0,0,0,24,8,30,16,30,19,4,4,9,0,0,5,15,20,13,9,3,11,26,13,9,998.txt
0,0,0,0,0,0,13,0,0,16,0,11,17,16,19,17,13,8,0,8,8,8,8,23,25,18,0,0,0,24,9,4,6,2,6,4,4,6,0,0,6,15,20,13,12,19,5,3,2,2,1002.txt
0,0,0,0,0,0,13,0,0,16,27,11,17,16,19,17,13,8,6,8,8,8,8,23,25,12,12,13,20,22,22,26,30,0,6,4,4,18,8,9,23,22,19,24,30,3,5,3,2,2,1005.txt
0,0,0,0,0,0,13,0,0,16,0,11,17,16,19,17,13,4,0,1,8,8,8,23,25,18,0,0,0,24,20,9,13,23,6,4,4,3,3,14,23,22,20,24,30,7,12,11,23,5,1008.txt
0,0,0,0,0,0,13,0,0,16,0,11,17,16,19,17,13,20,0,19,8,8,8,23,25,18,0,0,0,24,4,8,9,8,6,4,4,21,28,29,5,15,20,13,9,29,13,24,10,19,1010.txt
0,0,0,0,0,0,13,0,0,16,0,11,17,16,19,17,13,8,0,8,8,8,8,23,25,18,0,0,0,24,22,26,30,0,6,4,4,18,8,9,23,22,20,24,30,3,2,11,4,10,1013.txt
0,0,0,0,0,0,13,0,0,16,0,11,17,16,19,17,13,8,0,8,8,8,8,23,25,18,0,0,0,24,9,4,16,13,6,4,4,6,0,0,14,15,20,13,9,19,5,3,2,2,1015.txt
0,0,0,0,0,0,13,0,0,16,0,11,17,16,19,17,13,8,0,8,8,8,8,23,25,18,0,0,0,25,22,3,30,0,6,4,4,18,8,9,23,22,20,24,30,19,2,11,4,10,1018.txt
30,9,1,22,18,9,3,3,28,11,20,23,24,23,11,9,15,3,9,19,16,30,19,9,7,8,8,5,13,5,20,16,24,23,21,19,29,30,7,8,12,11,10,11,18,1,21,27,21,9,1020.txt
0,0,0,0,0,0,13,0,0,16,0,11,17,16,19,17,13,8,0,8,8,8,8,23,25,18,0,0,0,24,9,26,16,30,6,4,4,6,0,0,5,15,20,4,4,3,5,3,2,2,1022.txt
0,0,0,0,0,0,13,0,0,16,0,11,17,16,19,17,13,8,0,8,8,8,8,23,25,18,0,0,0,24,22,26,30,0,6,4,4,6,21,5,23,22,20,24,30,3,10,6,20,17,1025.txt
0,0,0,0,0,0,13,0,0,16,27,11,17,16,19,17,13,8,6,8,8,8,8,23,25,12,12,13,20,22,22,26,30,0,6,4,4,18,8,9,23,22,20,24,30,3,5,3,2,2,1027.txt
0,0,0,0,0,0,13,0,0,0,0,11,0,0,19,0,0,8,0,8,8,8,8,23,25,18,0,0,0,24,9,4,8,13,6,4,4,6,0,0,5,15,20,13,11,20,5,3,2,2,1030.txt
0,0,0,0,0,0,13,0,0,16,15,27,17,16,9,17,13,5,14,7,8,8,22,24,26,13,20,20,21,8,21,12,22,25,6,4,4,18,8,9,3,5,6,7,5,29,26,10,27,27,1036.txt
0,0,0,0,0,0,13,0,0,16,0,11,17,16,19,17,13,8,0,8,8,8,8,23,25,18,0,0,0,24,22,30,30,0,6,4,4,18,8,9,23,22,20,24,30,3,5,3,2,2,1041.txt
0,0,0,0,0,0,13,0,0,16,8,11,17,16,19,17,13,8,6,8,8,8,8,23,25,10,9,25,23,28,22,26,30,0,6,4,4,18,8,9,23,22,20,24,30,5,5,3,2,2,1043.txt
0,0,0,0,0,0,13,0,0,16,20,11,17,16,19,17,13,8,16,8,8,8,8,23,25,10,9,10,13,10,9,26,16,30,6,4,4,18,8,9,5,15,20,13,12,3,29,27,30,30,1045.txt
0,0,0,0,0,0,13,0,0,16,0,11,17,16,19,17,13,8,6,8,8,8,8,23,25,29,30,8,23,8,22,26,30,0,6,4,4,21,10,14,23,22,20,24,30,3,2,11,4,10,1046.txt
0,0,0,0,0,0,13,0,0,16,0,11,17,16,19,17,13,8,0,8,8,8,8,23,25,18,0,0,0,24,22,26,30,0,6,4,4,6,0,0,23,22,20,24,30,3,5,3,2,2,1048.txt
0,0,0,0,0,0,13,0,0,16,8,11,17,16,19,17,13,8,6,8,8,8,8,23,25,12,12,13,23,22,22,26,30,0,6,4,4,18,8,9,23,22,20,24,30,3,23,11,30,5,1051.txt
0,0,0,0,0,0,13,0,0,16,0,11,17,16,19,17,13,8,0,8,8,8,8,23,25,18,0,0,0,24,8,30,8,13,6,4,4,6,0,0,8,15,20,13,9,3,2,19,4,10,1054.txt
0,0,0,0,0,0,13,0,0,16,0,12,21,21,10,17,23,8,0,8,8,8,8,23,25,18,0,27,0,24,9,26,16,30,5,4,4,27,6,7,5,17,20,13,9,3,19,13,10,13,1057.txt
0,0,0,0,0,0,13,0,0,16,20,11,17,16,19,17,13,8,16,8,8,8,8,23,25,25,11,15,15,1,16,30,16,30,6,4,4,18,1,1,8,15,20,13,12,3,10,6,0,0,1059.txt
0,0,0,0,0,0,13,0,0,16,8,11,17,16,19,17,13,8,6,8,8,8,8,23,25,26,11,25,15,28,22,26,30,0,6,4,4,18,8,9,23,22,20,24,30,3,5,3,2,2,1060.txt
0,0,0,0,0,0,13,0,0,16,0,11,17,16,19,17,13,8,0,8,8,8,8,23,25,18,0,0,0,24,22,26,30,0,6,4,4,6,0,0,23,22,20,24,30,3,26,11,30,29,1064.txt
0,0,0,0,0,0,13,0,0,16,0,11,18,17,20,17,13,8,0,8,8,8,8,23,25,18,0,0,0,24,22,30,30,0,6,26,18,6,0,0,23,22,20,24,30,3,10,6,0,0,1069.txt
0,0,0,0,0,0,13,0,0,16,0,11,17,16,19,17,13,8,0,8,8,8,8,23,25,18,0,0,0,24,22,26,30,0,6,4,4,6,0,0,23,22,20,24,30,3,5,3,2,2,1071.txt
0,0,0,0,0,0,13,0,0,16,0,11,17,16,19,17,13,8,0,8,8,8,8,23,25,18,0,0,0,24,22,26,30,0,6,4,4,6,0,0,23,22,20,24,30,3,23,11,30,5,1073.txt
0,0,0,0,0,0,13,0,0,25,0,11,30,0,19,0,0,8,0,8,8,8,8,21,23,18,0,0,0,24,9,4,6,13,6,4,4,6,0,0,22,15,20,13,11,20,8,3,9,7,1075.txt
0,0,0,0,0,0,13,0,0,16,0,11,17,16,19,17,13,8,0,8,8,8,8,23,25,18,0,0,0,24,9,28,8,13,6,4,4,6,23,23,6,15,20,13,9,3,30,22,30,30,1076.txt
0,0,0,0,0,0,13,0,0,16,0,11,17,16,19,17,13,8,0,8,9,9,0,23,25,18,0,0,0,24,22,30,30,0,6,4,4,6,25,4,23,22,20,24,30,3,12,8,13,11,1078.txt
0,0,0,0,0,0,13,0,0,16,0,11,17,16,19,17,13,8,0,8,8,8,8,23,25,18,0,0,0,24,22,26,30,0,6,4,4,6,0,0,23,22,20,24,30,3,2,20,4,10,1080.txt
0,11,17,4,8,5,22,21,16,28,11,11,11,12,15,24,25,2,18,2,13,14,16,17,16,30,19,19,0,19,9,4,16,12,25,20,15,25,24,23,5,15,20,6,12,19,5,3,2,2,1082.txt
0,0,0,0,0,0,13,0,0,16,0,11,17,16,19,17,13,8,0,8,8,8,8,23,25,18,0,0,0,24,22,30,30,0,6,4,4,6,0,0,23,22,20,24,30,3,10,6,0,0,1084.txt
0,0,0,0,0,0,13,0,0,16,0,2,17,16,19,17,13,8,0,8,8,8,8,23,25,18,0,0,0,24,9,26,16,30,6,4,4,6,24,23,5,15,20,4,4,11,2,18,4,10,1086.txt
0,0,0,0,0,0,13,0,0,0,0,11,0,0,19,0,0,8,0,8,23,19,21,21,23,18,14,17,0,20,22,4,30,0,7,6,9,6,0,0,23,22,20,24,30,21,5,3,2,2,1088.txt
30,29,16,1,10,19,1,7,6,5,28,30,16,5,27,20,8,5,6,7,20,24,11,14,27,24,11,20,10,8,21,20,24,25,1,7,7,17,18,30,28,14,26,27,25,8,27,18,30,24,1090.txt
0,0,0,0,0,0,0,0,0,16,0,11,17,16,19,17,13,8,0,8,8,8,8,23,25,18,0,0,0,24,11,4,16,30,6,4,4,6,23,24,14,15,20,13,9,2,10,6,0,0,1093.txt
0,0,0,0,0,0,13,0,0,16,0,11,17,16,19,17,13,8,0,8,8,8,8,23,25,18,0,0,0,24,22,4,30,0,6,4,4,6,0,0,23,22,20,24,30,19,2,11,4,5,1094.txt
0,0,0,0,0,0,13,0,0,16,0,2,17,16,19,17,13,8,0,8,8,8,8,23,25,18,14,17,0,20,9,3,16,30,6,4,4,6,21,5,5,15,20,4,4,19,5,3,2,2,1096.txt
0,0,0,0,0,0,13,0,0,16,0,11,17,16,19,17,13,4,0,4,8,8,8,23,25,18,0,0,0,24,1,1,25,1,6,4,4,6,0,0,23,22,20,24,30,7,12,11,7,5,1101.txt
0,0,0,0,0,0,13,0,0,16,0,11,17,16,19,17,13,8,0,8,8,8,8,23,25,18,0,0,0,24,22,26,30,0,6,4,4,6,0,0,23,22,20,24,30,3,12,18,10,19,1105.txt
0,0,0,0,0,0,13,0,0,16,0,11,17,16,19,17,13,8,0,8,8,8,8,23,25,18,0,0,0,24,22,26,30,0,6,4,4,6,0,0,23,22,20,24,30,3,5,3,2,2,1106.txt
30,29,1,22,18,22,17,7,6,6,22,19,7,5,6,16,17,1,9,1,10,10,4,3,12,23,28,5,13,5,20,5,3,26,18,5,11,4,9,8,16,26,14,22,6,24,21,15,21,9,1108.txt
0,0,0,0,0,0,13,0,0,16,0,11,17,16,19,17,13,8,0,8,8,8,8,23,25,18,0,0,0,24,22,26,30,0,6,4,4,6,0,0,23,22,20,24,30,3,12,12,5,5,1109.txt
0,0,0,0,0,0,13,0,0,16,8,11,17,16,19,17,13,4,6,4,8,8,8,23,25,29,30,25,23,28,1,1,9,1,6,4,4,15,28,14,23,22,20,24,30,7,2,12,4,10,1114.txt
0,0,17,4,8,5,22,21,21,28,2,11,11,12,15,24,25,8,18,8,13,14,16,17,16,30,19,19,0,19,9,26,6,30,27,20,15,25,21,5,5,15,20,13,9,3,5,3,2,2,1117.txt
0,0,0,0,0,0,13,0,0,16,0,11,17,16,19,17,13,8,0,8,8,8,8,23,25,18,0,0,0,24,22,26,30,0,6,4,4,6,0,0,23,22,20,24,30,3,5,3,2,2,1118.txt
0,0,0,0,0,0,13,0,0,16,0,11,17,16,19,17,13,8,0,8,8,8,8,23,25,18,0,0,0,24,22,26,30,0,6,4,4,6,0,0,23,22,20,24,30,3,5,3,2,2,1121.txt
0,0,0,0,0,0,13,0,0,16,0,11,17,16,19,17,13,8,0,8,8,8,8,23,25,18,14,17,0,20,22,26,30,0,6,4,4,6,0,0,23,23,20,0,0,5,12,7,7,5,1122.txt
0,0,0,0,0,0,13,0,0,16,0,11,17,16,19,17,13,8,0,8,8,8,8,23,25,18,0,0,0,24,22,26,30,0,6,4,4,6,0,0,23,22,20,24,30,3,5,3,2,2,1124.txt
0,0,0,0,0,0,13,0,0,16,25,11,17,16,19,17,13,8,13,8,8,8,8,23,25,10,9,25,9,28,8,30,16,30,6,4,4,18,8,9,5,15,20,13,9,3,5,3,2,2,1126.txt
0,0,0,0,0,0,13,0,0,16,0,2,17,16,19,17,13,8,0,8,8,8,8,23,25,18,0,0,0,24,9,4,16,30,6,4,4,6,21,23,21,15,20,4,4,19,5,3,2,2,1128.txt
0,0,0,0,0,0,13,0,0,16,10,11,17,16,19,17,13,20,15,19,8,8,8,23,25,5,6,15,30,1,28,1,18,1,19,4,4,22,19,17,23,22,20,24,30,11,2,20,4,10,1130.txt
0,0,0,0,0,0,13,0,0,16,0,11,17,16,19,17,13,8,0,8,8,8,8,23,25,18,0,0,0,24,11,30,8,30,6,4,4,6,0,0,14,15,20,13,9,3,24,21,30,30,1135.txt
0,0,0,0,0,0,13,0,0,16,0,11,17,16,19,17,13,8,0,8,8,8,8,23,25,18,0,0,0,24,11,4,16,30,6,4,4,6,0,0,8,15,20,13,12,19,11,30,5,11,1136.txt
0,0,0,0,0,0,13,0,0,16,0,11,17,16,19,17,13,8,0,8,8,8,8,23,25,18,0,0,0,24,9,26,16,30,6,4,4,6,0,0,5,15,20,4,4,3,5,3,2,2,1137.txt
0,0,1,28,18,13,13,0,0,5,26,11,17,5,4,17,13,20,11,19,8,8,8,4,25,29,30,15,30,12,27,11,18,25,6,4,4,13,14,17,6,15,20,13,10,29,24,21,30,30,1139.txt
0,0,16,29,10,19,1,7,7,17,6,30,16,1,5,19,1,4,11,1,22,26,11,4,28,10,9,11,15,15,21,16,22,29,1,7,21,22,15,29,28,7,20,14,25,22,22,20,25,24,1141.txt
0,0,0,0,0,0,13,0,0,16,22,2,17,16,19,17,13,27,30,18,8,8,8,23,25,8,8,1,13,13,20,25,3,26,6,4,4,7,7,29,5,15,20,4,4,25,22,16,25,30,1143.txt
0,0,0,0,0,0,13,0,0,16,0,11,17,16,19,17,13,8,0,8,8,8,8,23,25,18,0,0,0,25,22,4,30,0,6,4,4,18,8,9,23,22,20,24,30,19,8,3,3,7,1147.txt
0,0,0,0,0,0,13,0,0,16,1,11,17,16,19,17,13,8,13,8,8,8,8,19,15,22,28,20,15,1,22,4,30,0,6,4,4,18,11,10,23,22,3,24,30,20,20,4,20,8,1149.txt
0,0,0,0,0,0,13,0,0,16,0,2,17,16,19,17,13,8,0,8,8,8,8,23,25,18,0,0,0,24,9,26,16,30,6,4,4,6,0,0,5,17,20,13,11,19,5,3,2,2,1151.txt
0,0,0,0,0,0,13,0,0,16,0,11,17,16,19,17,13,8,0,8,8,8,8,23,25,0,0,0,0,24,22,26,30,0,19,4,4,9,0,0,23,22,20,24,30,3,2,5,4,5,1152.txt
0,0,0,0,0,0,13,0,0,16,0,11,17,16,19,17,13,8,0,8,8,8,8,23,25,18,0,0,0,24,22,30,30,0,6,4,4,6,0,0,23,22,20,24,30,3,12,21,13,11,1156.txt
0,0,0,0,0,0,13,0,0,16,0,2,17,16,19,17,13,8,0,8,8,8,8,23,25,18,0,0,0,24,8,4,16,30,6,4,4,6,22,23,22,15,20,13,12,21,10,6,0,0,1158.txt
0,0,0,0,0,0,13,0,0,16,20,18,17,16,19,17,13,8,16,8,8,8,8,23,25,29,30,11,30,10,9,4,16,12,6,4,4,18,8,9,14,15,20,13,9,19,5,3,2,2,1161.txt
0,0,0,0,0,0,13,0,0,16,10,11,17,16,19,17,13,8,6,8,8,8,8,23,25,5,6,25,7,28,22,26,30,0,6,4,4,21,10,14,23,22,20,24,30,8,30,11,26,24,1166.txt
0,0,17,4,8,5,22,28,25,18,2,11,12,13,23,26,29,8,2,8,28,21,2,13,21,2,27,2,0,2,9,4,5,6,30,24,26,2,22,2,6,16,20,3,8,19,14,30,23,19,1168.txt
25,9,27,29,18,30,17,17,15,6,30,23,4,26,6,4,5,11,8,7,17,28,18,4,14,14,13,14,21,16,12,13,28,17,16,5,12,3,13,8,26,6,23,12,6,8,7,10,19,6,1169.txt
0,0,0,0,0,0,13,0,0,16,27,11,17,16,19,17,13,11,6,4,8,8,8,23,25,12,12,13,23,22,4,8,9,8,6,4,4,13,29,6,23,23,20,0,0,13,12,11,10,5,1171.txt
0,0,0,0,0,0,13,0,0,16,0,11,17,16,19,17,13,8,0,8,8,8,8,23,25,18,0,0,0,24,22,26,30,0,6,4,4,6,0,0,23,22,20,24,30,3,5,3,2,2,1175.txt
0,0,0,0,0,0,13,0,0,16,25,11,17,16,19,17,13,1,1,1,8,8,8,23,25,25,11,25,5,28,1,1,9,1,6,4,4,22,15,14,5,15,20,13,9,1,11,26,13,11,1177.txt
30,29,16,1,10,10,5,7,9,17,6,30,16,6,4,21,10,20,13,24,20,24,11,6,28,6,7,20,13,8,21,20,20,25,1,7,30,21,14,29,28,21,29,14,15,29,22,27,25,30,1179.txt
0,0,0,0,0,0,13,0,0,16,0,11,17,16,19,17,13,8,0,8,24,19,21,23,25,18,0,0,0,24,22,4,30,0,7,6,9,6,0,0,23,22,20,24,30,19,5,3,2,2,1183.txt
0,0,16,29,10,24,1,10,6,5,20,20,7,5,1,19,1,5,13,7,10,10,11,15,12,4,5,11,30,8,27,14,25,29,6,7,5,4,9,6,23,22,20,24,30,1,12,19,5,13,1184.txt
0,2,1,22,18,13,3,3,28,5,6,30,14,7,4,3,3,20,12,13,11,11,13,30,27,13,20,15,30,1,21,20,22,29,1,1,30,22,30,28,19,1,26,18,1,29,26,20,30,24,1190.txt
0,0,16,10,10,19,17,3,28,17,4,23,24,5,5,15,17,4,26,9,1,1,1,30,7,10,9,1,30,8,20,16,21,23,11,7,8,30,12,14,1,11,20,1,25,1,30,16,30,30,1192.txt
0,0,0,0,0,0,13,0,0,16,0,11,17,16,19,17,13,8,0,8,8,8,8,23,25,18,0,0,0,24,9,26,16,30,6,4,4,18,8,9,7,15,20,6,9,3,24,21,26,30,1194.txt
0,0,0,0,0,0,13,0,0,16,0,11,17,16,19,17,13,8,0,8,8,8,8,23,25,18,14,17,0,20,11,26,8,30,6,4,4,6,21,5,5,15,20,13,9,5,11,18,23,19,1196.txt
0,0,0,0,0,0,13,0,0,16,0,11,17,16,19,17,13,8,0,8,8,8,8,23,25,18,0,0,0,24,9,26,16,30,6,4,4,6,0,0,14,15,20,4,4,19,5,3,2,2,1197.txt
0,0,0,0,0,0,13,0,0,16,0,11,17,16,19,17,13,8,0,8,8,8,8,23,25,18,0,0,0,24,22,26,30,0,6,4,4,6,0,0,23,22,20,24,30,3,5,3,2,2,1199.txt
0,0,17,4,8,5,22,27,21,23,11,2,11,12,24,27,26,8,28,8,13,14,16,17,17,30,19,19,0,19,9,4,16,30,28,21,24,25,0,0,5,15,20,4,4,19,5,3,2,2,1201.txt
0,0,0,0,0,0,13,0,0,16,0,11,17,16,19,17,13,8,0,8,8,8,8,23,25,18,0,0,0,24,22,26,30,0,3,4,4,5,0,0,23,22,20,24,30,3,5,3,2,2,1203.txt
0,0,0,0,0,0,13,0,0,16,0,11,17,16,19,17,13,8,0,8,8,8,8,23,25,18,0,0,0,24,22,26,30,0,6,4,4,18,8,9,23,22,20,24,30,3,5,3,2,2,1205.txt
30,9,29,21,18,19,17,7,28,6,20,22,10,5,6,9,20,23,25,17,14,12,5,10,7,11,10,12,16,14,26,13,3,28,16,5,7,7,12,30,20,20,23,12,6,30,28,15,30,28,1207.txt
0,0,0,0,0,0,13,0,0,16,0,10,20,20,9,17,23,10,0,16,8,8,8,12,15,18,0,28,0,0,2,2,7,13,3,3,3,5,6,7,6,2,25,2,2,20,6,2,9,3,1211.txt
0,0,0,0,0,0,13,0,0,16,0,11,17,16,19,17,13,8,0,8,8,8,8,23,25,18,0,0,0,24,22,26,30,0,6,4,4,18,8,9,23,22,20,24,30,3,1,11,1,5,1214.txt
0,0,0,0,0,0,13,0,0,16,0,11,17,16,19,17,13,8,0,8,8,8,8,23,25,18,0,0,0,24,22,26,30,0,6,4,4,6,0,0,23,22,20,24,30,3,5,3,2,2,1216.txt
0,0,0,0,0,0,13,0,0,16,0,11,17,16,19,17,13,8,0,8,8,8,8,23,25,18,0,0,0,24,22,30,30,0,6,4,4,6,0,0,23,22,20,24,30,3,5,3,2,2,1217.txt
0,0,0,0,0,0,13,0,0,16,8,11,17,16,19,17,13,4,13,1,8,8,8,23,25,10,9,20,15,10,27,10,21,10,6,4,4,18,10,14,23,22,20,24,30,29,23,5,30,30,1219.txt
0,0,0,0,0,0,15,0,0,16,0,4,19,18,21,17,13,8,0,8,15,17,28,12,15,20,0,0,27,0,11,18,2,13,0,0,0,0,20,2,2,3,3,13,10,2,0,0,8,8,1221.txt
30,9,1,10,4,19,17,3,28,7,22,23,24,5,5,3,17,4,26,1,16,30,18,30,7,10,9,1,13,15,27,16,21,25,12,12,8,30,7,14,12,11,10,11,18,24,30,18,30,30,1225.txt
0,0,0,0,0,0,13,0,0,16,0,11,17,16,19,17,13,8,0,8,24,19,21,23,25,18,0,0,0,24,22,26,30,0,7,6,9,6,0,0,23,22,20,24,30,0,5,3,2,2,1228.txt
0,0,17,4,8,5,22,21,21,28,11,11,11,12,15,24,25,20,28,10,28,20,2,18,16,30,26,29,0,2,4,8,29,8,27,20,15,21,28,16,6,15,20,13,9,18,13,16,10,18,1230.txt
0,0,0,0,0,0,13,0,0,16,8,11,17,16,19,17,13,14,6,13,8,8,8,23,25,10,9,8,7,8,27,5,3,29,6,4,4,18,8,9,23,22,20,24,30,7,23,11,30,24,1234.txt
0,0,0,0,0,0,13,0,0,16,0,11,17,16,19,17,13,8,0,8,8,8,8,23,25,18,0,0,0,24,22,26,30,0,6,4,4,6,0,0,23,22,20,24,30,3,2,11,4,5,1237.txt
0,0,27,1,10,19,1,10,4,8,8,23,24,5,5,20,1,4,6,6,16,30,18,26,5,12,12,13,20,22,1,1,25,1,14,7,8,3,3,14,12,7,10,11,25,7,12,11,5,5,1239.txt
30,9,1,10,18,9,3,3,28,6,22,14,27,24,11,12,20,3,26,28,16,30,18,9,7,25,11,1,11,13,20,25,4,28,17,5,29,8,12,16,20,26,11,12,6,1,29,15,30,29,1241.txt
0,0,0,0,0,0,13,0,0,16,0,11,17,16,19,17,13,10,0,16,8,8,8,23,25,18,0,0,0,24,2,2,16,30,6,4,4,6,0,0,6,18,25,28,2,19,11,27,23,19,1243.txt
30,9,1,10,4,13,3,3,28,7,22,1,26,5,4,3,22,20,29,19,16,30,27,30,6,10,9,1,30,11,1,1,25,1,13,17,30,7,12,14,12,7,10,11,18,1,7,20,14,11,1245.txt
0,0,0,0,0,0,13,0,0,16,0,11,17,16,19,17,13,20,0,12,8,8,8,23,25,18,0,0,0,24,4,8,25,8,6,4,4,6,23,4,6,3,20,13,9,29,2,21,4,10,1249.txt
0,0,0,0,0,0,13,0,0,16,8,11,17,16,19,17,13,8,6,8,8,8,8,23,25,12,12,13,20,22,22,26,30,0,6,4,4,21,28,14,23,22,20,24,30,3,23,11,30,5,1251.txt
0,0,21,4,8,5,22,27,21,20,4,15,11,28,25,2,2,3,23,27,27,20,23,18,18,22,29,6,12,6,6,16,21,24,30,23,24,17,15,13,14,15,20,13,9,22,29,24,30,12,1254.txt
0,0,0,0,0,0,13,0,0,16,0,11,17,16,19,17,13,16,0,19,8,8,8,23,25,18,14,17,0,20,4,8,25,8,6,4,4,6,21,5,5,15,20,4,4,7,11,20,23,13,1255.txt
0,0,0,0,0,0,13,0,0,16,0,11,17,16,19,17,13,8,0,8,8,8,8,23,25,19,14,17,0,20,9,26,16,30,19,4,4,0,0,0,14,17,20,4,4,20,5,3,2,2,1267.txt
0,0,1,22,18,13,3,10,28,5,20,23,24,5,4,3,3,20,25,13,16,30,27,30,6,8,8,1,5,11,27,10,25,29,14,12,30,7,12,15,12,7,20,11,18,24,24,23,30,30,1271.txt
30,9,1,29,10,13,26,7,6,4,4,1,26,8,4,19,5,20,11,19,16,30,27,4,7,10,9,1,19,8,13,5,3,16,18,5,30,30,7,12,15,26,13,23,6,17,18,20,17,26,1274.txt
0,0,0,0,0,0,13,0,0,16,0,11,17,16,19,17,13,8,0,8,8,8,8,23,25,18,0,0,0,24,22,26,30,0,6,4,4,6,0,0,23,22,20,24,30,3,12,11,7,9,1276.txt
30,9,1,10,4,13,3,3,28,7,4,23,24,5,4,3,17,3,26,19,16,30,18,30,7,10,9,1,13,15,20,16,21,23,12,12,30,8,7,26,12,11,10,11,18,29,29,18,30,30,1278.txt
0,0,0,0,0,0,13,0,0,16,0,11,17,16,19,17,13,8,0,8,8,8,8,23,25,18,0,0,0,24,8,30,16,30,6,4,4,6,0,0,8,15,3,4,4,9,2,26,4,10,1280.txt
30,29,1,22,18,24,17,3,28,5,20,30,14,23,1,3,3,1,29,1,11,11,10,3,27,13,20,15,5,15,18,24,25,22,14,13,12,22,18,25,29,7,30,14,23,1,30,23,30,1,1283.txt
30,9,1,22,18,13,28,3,28,6,4,23,24,26,14,9,15,27,26,27,16,30,18,9,5,8,8,1,13,13,12,5,3,15,18,5,30,3,7,28,12,26,10,11,6,22,7,18,10,19,1285.txt
12,11,25,4,8,5,22,30,26,28,2,11,13,2,24,26,29,21,28,25,13,13,15,25,2,30,19,29,4,19,9,30,16,5,30,25,2,24,25,2,8,4,2,4,4,3,15,30,22,22,1287.txt
0,0,0,0,0,0,13,0,0,16,0,11,17,16,19,17,13,8,0,8,8,8,8,23,25,18,0,0,0,24,22,26,30,0,6,4,4,6,0,0,23,22,20,24,30,3,5,3,2,2,1288.txt
10,9,1,10,4,13,3,3,28,3,22,23,24,3,4,16,17,20,23,19,16,30,27,30,7,10,9,1,12,11,27,10,27,29,14,12,30,30,5,26,12,21,10,11,18,24,29,27,30,30,1290.txt
30,9,1,10,4,19,17,3,28,7,22,14,27,23,5,9,15,4,29,6,16,30,18,9,7,29,30,1,30,13,12,22,29,17,22,11,8,8,12,14,12,11,10,11,22,1,24,16,30,29,1292.txt
0,0,0,0,0,0,13,0,0,16,8,11,17,16,19,17,13,8,6,8,8,8,8,23,25,5,6,15,23,13,22,26,30,0,6,4,4,21,28,17,23,22,20,24,30,7,29,11,30,24,1295.txt
0,0,1,28,18,3,3,7,6,14,20,30,7,5,4,19,1,20,1,13,10,10,4,4,12,27,28,5,15,5,1,1,23,1,14,12,30,4,9,11,11,7,20,9,1,17,22,22,25,30,1297.txt
0,0,0,0,0,0,13,0,0,16,25,11,17,16,19,17,13,8,11,8,8,8,8,23,25,29,30,25,30,28,9,26,16,30,6,4,4,18,8,9,5,15,20,4,4,3,5,3,2,2,1300.txt
30,29,16,29,10,19,1,12,7,5,27,30,7,7,6,19,8,6,6,7,10,10,10,7,12,29,30,20,21,8,25,11,1,23,1,7,13,4,9,6,25,13,24,15,17,13,18,11,17,25,1302.txt
0,0,0,0,0,0,13,0,0,16,0,11,17,16,19,17,13,8,0,8,8,8,8,23,25,18,0,0,0,24,22,26,30,0,6,4,4,6,0,0,23,22,20,24,30,3,5,3,2,2,1303.txt
0,0,0,0,0,0,13,0,0,16,0,11,18,17,20,17,13,8,0,8,9,9,9,22,24,18,0,0,0,24,11,30,2,30,6,26,0,6,2,22,8,15,20,13,9,3,0,6,0,0,1305.txt
0,0,0,0,0,0,13,0,0,16,0,11,17,16,19,17,13,8,0,8,8,8,8,23,25,18,0,0,0,24,22,26,30,0,6,4,4,18,8,9,23,22,20,24,30,3,23,11,30,24,1307.txt
0,0,21,4,8,5,22,27,21,28,2,15,11,12,24,29,29,8,28,8,13,14,16,17,2,30,19,19,0,19,9,4,16,6,25,24,24,2,21,24,5,15,20,13,9,19,5,3,2,2,1309.txt
0,0,0,0,0,0,13,0,0,16,0,11,17,16,19,17,13,8,0,8,8,8,8,23,25,18,0,0,0,24,22,26,30,0,6,4,4,6,0,0,23,22,20,24,30,3,23,11,30,24,1311.txt
0,0,0,0,0,0,13,0,0,16,0,11,17,16,19,17,13,8,0,8,8,8,8,23,25,18,0,0,0,24,22,26,30,0,6,4,4,6,0,0,23,22,20,24,30,3,5,3,2,2,1314.txt
0,0,0,0,0,0,13,0,0,16,0,11,17,16,19,17,13,8,0,8,8,8,8,23,25,18,0,0,0,24,22,26,30,0,6,4,4,6,0,0,23,22,20,24,30,3,5,3,2,2,1315.txt
0,0,0,0,0,0,13,0,0,16,0,11,17,16,19,17,13,8,0,8,8,8,8,23,25,18,0,0,0,24,22,4,30,0,6,4,4,6,0,0,23,22,20,24,30,19,12,11,7,14,1317.txt
0,0,0,0,0,0,13,0,0,16,0,2,17,16,19,17,13,8,0,8,8,8,8,23,25,18,0,0,0,24,11,4,16,30,6,4,4,6,0,0,5,15,20,13,9,19,5,3,2,2,1318.txt
0,0,0,0,0,0,13,0,0,16,0,11,17,16,19,17,13,8,0,8,8,8,8,23,25,18,0,0,0,24,22,26,30,0,6,4,4,6,0,0,23,22,20,24,30,3,5,3,2,2,1320.txt
0,0,0,0,0,0,13,0,0,16,0,11,17,16,19,17,13,8,0,8,8,8,8,23,25,18,0,0,0,24,22,26,30,0,6,4,4,6,0,0,23,22,20,24,30,3,5,3,2,2,1323.txt
0,0,0,0,0,0,13,0,0,16,0,11,17,16,19,17,13,8,0,8,8,8,8,23,25,18,0,0,0,24,22,26,30,0,6,4,4,6,23,23,23,22,20,24,30,3,10,6,0,0,1325.txt
0,0,0,0,0,0,13,0,0,16,0,2,17,16,19,17,13,8,0,8,8,8,8,23,25,18,0,0,0,24,9,4,16,30,6,4,4,6,21,5,14,15,20,13,12,19,8,3,3,7,1327.txt
0,0,17,4,8,5,22,21,16,28,2,11,11,12,15,24,25,8,18,8,27,20,23,17,16,30,26,19,0,2,9,4,7,30,27,20,15,24,21,5,22,15,20,13,9,19,11,16,23,18,1329.txt
0,0,0,0,0,0,13,0,0,16,4,2,17,16,19,17,13,8,16,8,8,8,8,23,25,29,30,1,15,30,9,3,16,30,6,4,4,18,11,10,14,15,20,4,4,19,24,17,30,24,1331.txt
0,0,0,0,0,0,13,0,0,16,0,11,17,16,19,17,13,8,0,8,8,8,8,23,25,18,0,0,0,24,9,30,16,30,6,4,4,6,0,0,8,15,20,4,4,3,0,6,20,8,1332.txt
0,0,0,0,0,0,13,0,0,16,4,11,17,16,19,17,13,8,13,8,8,8,8,23,25,10,9,20,15,15,22,26,30,0,6,4,4,22,10,13,23,22,20,24,30,3,23,20,30,24,1335.txt
30,29,1,21,10,13,3,3,28,5,4,20,29,5,14,3,17,20,23,10,11,11,10,30,27,27,28,11,15,11,4,8,21,8,12,7,30,10,18,13,29,21,26,14,25,24,7,16,14,18,1337.txt
0,0,0,0,0,0,13,0,0,16,0,11,17,16,19,17,13,8,0,8,8,8,8,23,25,18,0,0,0,24,9,26,16,30,6,4,4,6,0,0,5,15,20,4,4,3,30,18,30,30,1339.txt
0,0,0,0,0,0,13,0,0,16,0,11,17,16,19,17,13,8,0,8,8,8,8,23,25,18,0,0,0,24,22,30,30,0,6,4,4,6,0,0,23,22,20,24,30,3,23,11,26,5,1341.txt
0,0,0,0,0,0,13,0,0,16,0,11,17,16,19,17,13,8,0,8,8,8,8,23,25,18,0,0,0,24,22,30,30,0,6,4,4,6,0,0,23,22,20,24,30,3,10,6,20,8,1344.txt
0,0,0,0,0,0,13,0,0,16,0,11,17,16,19,17,13,8,0,8,8,8,8,23,25,18,0,0,0,24,22,26,30,0,6,4,4,6,0,0,23,22,20,24,30,3,10,6,20,17,1346.txt
0,0,0,0,0,0,13,0,0,16,25,11,17,16,19,8,11,8,13,8,8,8,8,23,25,26,11,15,30,10,8,30,8,30,6,4,4,18,8,9,5,15,4,13,9,3,27,30,26,1,1348.txt
30,9,1,28,18,13,3,7,6,24,22,14,10,23,4,19,5,20,11,10,16,30,18,4,5,8,8,1,13,13,15,21,29,18,22,30,30,20,7,27,12,8,10,11,22,18,23,13,28,27,1351.txt
0,0,0,0,0,0,13,0,0,16,0,11,17,16,19,17,13,8,0,8,8,8,8,23,25,18,0,0,0,24,22,30,30,0,6,4,4,6,0,0,23,22,20,24,30,3,5,3,2,2,1352.txt
0,0,0,0,0,0,13,0,0,0,10,11,0,0,19,0,0,8,6,8,8,8,8,23,25,23,28,9,15,8,22,3,30,0,6,4,4,18,8,9,23,22,20,24,30,19,5,3,2,2,1354.txt
0,0,0,0,0,0,13,0,0,16,0,11,17,16,19,17,13,8,0,8,8,8,8,23,25,18,0,0,0,24,9,4,16,30,6,4,4,6,0,0,14,15,20,13,9,21,5,3,2,2,1356.txt
0,0,0,0,0,0,13,0,0,16,0,11,17,16,19,17,13,8,0,8,8,8,8,23,25,18,0,0,0,24,8,4,16,30,6,4,4,6,23,23,6,15,20,3,12,19,10,6,0,0,1358.txt
12,11,17,4,8,5,22,21,21,28,11,18,11,12,15,24,25,2,18,2,27,20,23,25,16,30,26,29,24,29,9,4,16,5,27,20,15,25,24,23,22,4,22,3,12,21,5,3,2,2,1360.txt
0,0,0,0,0,0,13,0,0,16,0,11,17,16,19,17,13,20,0,19,8,8,8,23,25,18,0,0,0,24,4,8,25,8,6,4,4,6,0,0,14,15,20,13,9,22,11,27,7,14,1362.txt
0,0,0,0,0,0,13,0,0,16,0,11,17,16,19,17,13,8,0,8,8,8,8,23,25,18,0,0,0,24,9,26,16,30,6,4,4,6,23,23,7,15,20,4,4,3,10,6,0,0,1364.txt
0,0,0,0,0,0,13,0,0,16,0,12,17,16,10,17,13,8,0,8,8,8,8,23,25,18,0,0,0,24,22,26,30,0,6,4,4,6,21,5,23,22,20,24,30,3,12,17,10,18,1367.txt
0,0,16,1,10,19,13,0,0,8,0,11,17,5,5,17,13,4,0,1,8,8,8,6,25,18,14,17,0,20,3,7,21,7,6,4,4,6,0,0,14,15,20,13,9,23,13,27,10,9,1368.txt
0,0,0,0,0,0,13,0,0,16,20,11,17,16,19,17,13,20,15,10,8,8,8,23,25,10,9,15,10,15,20,16,21,23,6,4,4,17,26,16,5,15,20,4,4,1,11,17,5,18,1371.txt
0,0,0,0,0,0,13,0,0,16,0,2,17,16,19,17,13,8,0,8,8,8,8,23,25,18,0,0,0,24,9,4,16,30,6,4,4,6,21,23,14,15,20,4,4,19,11,20,7,13,1372.txt
0,0,0,0,0,0,13,0,0,16,0,0,17,16,19,17,13,8,0,8,8,8,8,23,25,18,0,0,0,24,9,4,16,30,6,4,4,6,0,0,14,15,20,13,9,19,5,3,2,2,1375.txt
0,0,0,0,0,0,13,0,0,16,0,2,17,16,19,17,13,8,0,8,8,8,8,19,15,18,0,0,0,24,11,4,8,30,6,4,4,6,0,0,6,3,20,13,9,19,8,3,3,7,1377.txt
0,0,0,0,0,0,13,0,0,16,20,11,17,16,19,17,13,8,15,8,8,8,8,23,25,29,30,20,15,10,9,26,16,30,6,4,4,18,8,9,14,15,20,13,12,11,24,20,30,30,1379.txt
0,0,0,0,0,0,13,0,0,16,0,11,17,16,19,17,13,20,0,19,8,8,8,23,25,18,0,0,25,24,3,5,3,7,6,4,4,6,21,5,5,15,20,4,4,23,11,27,14,21,1380.txt
0,0,0,0,0,0,13,0,0,16,0,2,17,16,19,17,13,8,0,8,8,8,8,23,25,0,0,0,0,24,9,4,16,30,19,4,4,9,25,23,14,15,20,13,9,20,5,3,2,2,1383.txt
0,0,0,0,0,0,13,0,0,16,0,11,17,16,19,17,13,8,0,8,8,8,8,23,25,18,0,0,0,24,9,26,16,30,6,4,4,6,0,0,7,15,20,13,9,5,19,16,7,14,1389.txt
30,29,1,10,10,19,17,3,28,9,20,30,16,5,5,10,17,4,24,1,20,24,11,11,29,4,5,15,30,13,30,21,22,24,22,7,8,21,28,14,30,8,28,17,22,1,24,16,30,29,1390.txt
0,0,0,0,0,0,13,0,0,16,0,11,17,16,19,17,13,8,0,8,8,8,8,23,25,18,0,0,0,24,9,26,8,30,6,4,4,6,0,0,5,15,20,13,9,3,5,3,2,2,1392.txt
0,0,0,0,0,0,13,0,0,16,0,11,17,16,19,17,13,8,0,8,8,8,8,23,25,18,0,0,0,24,22,4,30,0,6,4,4,6,0,0,23,22,20,24,30,19,2,5,4,10,1395.txt
0,0,0,0,0,0,13,0,0,16,0,11,17,16,19,17,13,8,0,8,8,8,8,23,25,18,0,0,0,24,8,30,8,30,6,4,4,6,0,0,14,15,20,13,9,3,10,6,0,0,1396.txt
0,0,0,0,0,0,13,0,0,16,0,11,17,16,19,17,13,8,0,8,8,8,8,23,25,18,0,0,0,24,9,4,6,30,6,4,4,6,0,0,5,15,20,13,9,19,13,16,10,18,1398.txt
0,0,0,0,0,0,13,0,0,16,20,11,17,16,19,17,13,8,13,8,8,8,8,23,25,10,9,20,15,1,9,26,16,30,6,4,4,18,11,10,7,15,20,13,12,3,10,6,20,8,1400.txt
0,0,0,0,0,0,13,0,0,16,0,2,17,16,19,17,13,8,0,8,8,8,8,19,15,18,0,0,0,24,9,4,16,30,6,4,4,6,0,0,14,15,20,13,11,19,5,3,2,2,1402.txt
0,0,0,0,0,0,13,0,0,16,0,11,17,16,19,17,13,8,0,8,8,8,8,23,25,18,0,0,0,24,9,26,16,30,6,4,4,6,21,5,5,15,20,4,4,5,11,23,14,11,1405.txt
0,0,0,0,0,0,13,0,0,16,0,11,17,16,19,17,13,8,0,8,8,8,8,23,25,18,0,0,0,24,22,30,30,0,6,4,4,6,0,0,23,22,20,24,30,3,5,3,2,2,1407.txt
0,0,0,0,0,0,13,0,0,16,0,11,17,16,19,17,13,8,0,8,8,8,8,23,25,18,0,0,0,24,22,26,30,0,6,4,4,6,0,0,23,22,20,24,30,3,5,3,2,2,1409.txt
30,9,1,21,18,4,4,3,28,6,22,14,27,5,11,9,15,12,9,18,16,30,18,9,7,21,8,5,13,5,24,25,3,27,16,5,29,8,7,8,12,26,10,11,6,12,18,16,17,9,1412.txt
0,0,0,0,0,0,13,0,0,16,8,11,17,16,19,17,13,8,11,8,8,8,8,23,25,29,30,25,15,28,8,26,16,30,6,4,4,18,8,9,5,15,20,13,9,3,5,3,2,2,1416.txt
0,0,0,0,0,0,13,0,0,16,0,2,17,16,19,17,13,8,0,8,8,8,8,23,25,18,0,0,0,24,9,4,8,30,6,4,4,6,21,23,14,15,20,13,9,19,5,3,2,2,1418.txt
0,0,0,0,0,0,13,0,0,16,8,11,17,16,19,17,13,16,6,19,8,8,8,23,25,4,5,25,23,28,4,8,12,8,6,4,4,18,8,9,23,22,20,24,30,7,2,29,4,10,1421.txt
12,11,17,4,8,5,22,27,21,28,2,11,11,12,25,30,2,21,18,25,13,14,16,17,18,30,19,19,4,19,9,26,16,12,29,23,24,25,21,23,5,4,22,3,11,3,5,3,2,2,1422.txt
0,0,0,0,0,0,13,0,0,16,0,11,17,16,19,17,13,8,0,8,8,8,8,23,25,18,0,0,0,24,22,26,30,0,6,4,4,6,0,0,23,22,20,24,30,3,2,11,4,10,1425.txt
0,0,0,0,0,0,13,0,0,16,0,11,17,16,19,17,13,8,0,8,8,8,8,23,25,18,0,0,0,24,22,4,30,0,6,4,4,6,0,0,23,22,20,24,30,2,12,8,5,9,1427.txt
0,0,0,0,0,0,13,0,0,16,0,11,17,16,19,17,13,8,0,8,8,8,8,23,25,18,0,0,0,24,22,30,30,0,6,4,4,18,1,1,23,22,20,24,30,8,12,5,5,11,1429.txt
0,0,0,0,0,0,13,0,0,16,0,11,17,16,19,17,13,8,0,8,8,8,8,23,25,18,0,0,0,24,22,26,30,0,6,4,4,6,0,0,23,22,20,24,30,3,5,3,2,2,1431.txt
0,0,0,0,0,0,13,0,0,16,20,11,17,16,19,17,13,1,11,1,8,8,8,23,25,29,30,11,30,11,21,20,25,29,6,4,4,14,26,30,23,22,20,24,30,1,12,20,23,13,1433.txt
0,0,0,0,0,0,13,0,0,16,0,2,17,16,19,17,13,8,0,8,8,8,8,23,25,18,0,0,0,24,9,26,16,30,6,4,4,6,0,0,22,15,20,13,12,3,5,3,2,2,1434.txt
0,0,0,0,0,0,13,0,0,16,0,2,17,16,19,17,13,8,0,8,8,8,8,23,25,18,0,0,0,24,9,26,16,30,6,4,4,6,0,0,22,15,20,13,12,3,5,3,2,2,1436.txt
0,0,0,0,0,0,13,0,0,0,6,11,0,0,19,0,0,8,16,8,8,8,8,21,23,5,6,9,7,13,9,4,6,13,5,4,4,18,8,9,22,17,20,3,11,20,8,3,9,7,1439.txt
0,0,0,0,0,0,13,0,0,16,0,11,17,16,19,17,13,8,0,8,8,8,8,23,25,18,0,0,0,24,22,26,30,0,6,4,4,6,0,0,23,22,20,24,30,3,5,3,2,2,1441.txt
0,0,0,0,0,0,13,0,0,16,0,11,17,16,19,17,13,8,0,8,8,8,8,23,25,18,0,0,0,24,11,26,16,30,6,4,4,6,0,0,5,15,20,13,9,3,11,21,22,11,1442.txt
0,0,0,0,0,0,13,0,0,16,0,11,17,16,19,17,13,8,0,8,8,8,8,23,25,18,4,4,0,4,16,4,16,30,6,4,4,6,0,0,14,15,20,4,4,19,10,6,0,0,1444.txt
0,0,0,0,0,0,13,0,0,16,0,2,17,16,19,17,13,8,0,8,8,8,8,23,25,18,0,0,0,24,9,4,16,30,6,4,4,6,21,23,14,15,20,13,12,19,8,3,3,7,1446.txt
0,0,0,0,0,0,13,0,0,16,0,2,17,16,19,17,13,8,0,8,8,8,8,23,25,18,0,0,0,24,11,4,16,30,6,4,4,6,25,23,8,15,20,13,9,19,10,6,20,8,1448.txt
0,0,0,0,0,0,13,0,0,16,0,11,17,16,19,17,13,8,0,8,8,8,8,23,25,18,0,0,0,24,22,26,30,0,6,4,4,6,0,0,23,22,20,24,30,3,5,3,2,2,1451.txt
0,0,0,0,0,0,13,0,0,16,0,11,17,16,19,17,13,8,0,8,8,8,8,23,25,18,0,0,0,24,22,26,30,0,6,4,4,6,0,0,23,22,20,24,30,3,2,20,4,10,1453.txt
0,0,0,0,0,0,13,0,0,16,22,2,17,16,19,17,13,20,16,19,8,8,8,23,25,11,10,1,13,10,27,5,3,29,6,4,4,18,8,9,5,15,20,4,4,22,22,27,25,30,1454.txt
30,29,16,10,12,19,16,12,28,5,4,30,16,5,6,15,21,1,23,1,22,26,11,3,28,10,9,11,30,11,1,1,25,1,1,7,5,22,18,14,29,9,26,9,25,10,11,26,13,11,1456.txt
0,0,0,0,0,0,13,0,0,16,0,11,17,16,19,17,13,8,0,8,8,8,8,23,25,18,0,0,0,24,9,4,6,13,6,4,4,6,0,0,6,15,20,13,12,21,8,3,9,7,1458.txt
0,0,0,0,0,0,13,0,0,16,0,11,17,16,19,17,13,8,0,8,8,8,8,23,25,18,0,0,0,24,22,26,30,0,6,4,4,6,0,0,23,22,20,24,30,3,5,3,2,2,1460.txt
0,0,0,0,0,0,13,0,0,16,20,11,17,16,19,18,11,4,15,1,8,8,8,23,25,25,11,11,15,11,6,10,24,10,19,4,4,22,15,11,14,15,4,13,9,1,11,30,7,13,1462.txt
0,0,0,0,0,0,13,0,0,16,0,11,17,16,19,17,13,8,0,8,8,8,8,23,25,18,0,0,0,24,22,26,30,0,6,4,4,6,0,0,23,22,20,24,30,3,23,11,26,5,1465.txt
0,0,0,0,0,0,13,0,0,16,0,11,17,16,19,17,13,8,0,8,7,7,7,23,25,18,0,0,0,24,22,26,30,0,6,4,4,18,8,9,23,22,20,24,30,3,5,3,2,2,1467.txt
0,0,0,0,0,0,13,0,0,16,25,11,17,16,19,17,13,8,16,8,8,8,8,23,25,5,6,25,7,28,8,30,8,30,6,4,4,18,8,9,7,15,20,13,12,3,5,3,2,2,1469.txt
30,9,1,10,4,4,4,3,28,7,22,23,24,5,11,3,18,12,23,13,16,30,18,30,7,10,9,1,13,15,30,5,3,24,18,5,29,8,7,14,12,26,10,11,6,12,18,27,17,30,1470.txt
17,11,1,10,4,13,3,3,28,27,2,7,3,3,14,3,3,20,18,21,3,3,3,30,3,30,16,29,4,17,4,8,9,8,10,8,30,24,25,5,17,28,5,9,1,17,15,20,22,22,1473.txt
0,0,0,0,0,0,13,0,0,16,0,11,18,17,20,17,13,4,0,1,9,9,9,23,25,18,0,0,0,24,1,1,12,1,6,26,18,6,0,0,5,15,20,13,9,11,11,20,5,11,1475.txt
0,0,0,0,0,0,13,0,0,16,0,11,17,16,19,17,13,8,0,8,8,8,8,23,25,18,0,0,0,24,9,4,16,30,6,4,4,6,0,0,22,15,20,13,12,20,5,3,2,2,1477.txt
0,0,0,0,0,0,13,0,0,16,0,11,17,16,19,17,13,8,0,8,8,8,8,23,25,18,0,0,0,24,9,4,16,30,6,4,4,6,21,24,5,15,20,4,4,19,5,3,2,2,1480.txt
30,9,16,1,10,19,1,7,8,5,4,23,26,5,6,19,1,1,1,1,4,5,27,1,1,22,8,1,15,10,6,10,24,10,14,7,5,8,5,15,15,7,13,23,28,9,30,30,26,1,1482.txt
0,0,0,0,0,0,13,0,0,16,0,11,17,16,19,17,13,8,0,8,8,8,8,23,25,18,0,0,0,24,9,26,8,30,6,4,4,6,21,4,5,15,20,13,9,3,5,3,2,2,1484.txt
0,0,0,0,0,0,13,0,0,16,0,11,17,16,19,17,13,8,0,8,8,8,8,23,25,18,14,17,0,20,22,26,30,0,6,4,4,6,0,0,23,22,20,24,30,3,5,3,2,2,1487.txt
0,0,0,0,0,0,13,0,0,16,0,11,17,16,19,17,13,8,0,8,8,8,8,23,25,18,0,0,0,24,8,3,8,2,6,4,4,6,21,23,8,15,20,5,13,19,10,6,24,17,1490.txt
0,0,0,0,0,0,13,0,0,16,0,11,17,16,19,17,13,8,0,8,8,8,8,23,25,18,0,0,0,24,22,30,30,0,6,4,4,6,0,0,23,22,20,24,30,3,5,3,2,2,1491.txt
30,9,1,10,28,4,4,3,3,17,4,23,24,8,4,12,20,12,15,28,16,30,18,9,10,10,9,1,13,13,12,22,29,17,23,7,30,30,7,14,20,10,23,12,22,25,18,13,17,27,1494.txt
30,29,1,28,18,24,17,7,6,14,20,30,7,5,6,19,8,1,11,1,10,10,29,4,12,23,28,5,15,5,21,20,21,29,12,12,7,4,9,29,16,11,14,20,18,1,22,27,25,1,1497.txt
0,0,0,0,0,0,13,0,0,16,0,11,17,16,19,17,13,8,0,8,8,8,8,23,25,18,0,0,0,24,22,26,30,0,6,4,4,6,0,0,23,22,20,24,30,3,5,3,2,2,1499.txt
0,0,0,0,0,0,13,0,0,16,0,11,17,16,19,17,13,8,0,8,8,8,8,23,25,18,0,0,0,24,22,30,30,0,6,4,4,6,0,0,23,22,20,24,30,3,5,3,2,2,1502.txt
0,0,0,0,0,0,13,0,0,16,0,11,17,16,19,17,13,8,0,8,8,8,8,23,25,18,0,0,0,24,9,4,16,30,6,4,4,6,0,0,5,15,20,13,9,19,5,3,2,2,1504.txt
0,0,1,10,22,19,1,7,6,7,22,23,24,5,5,16,17,4,9,6,16,30,18,3,7,10,9,5,15,5,30,5,3,24,6,5,8,8,7,8,14,15,20,4,4,22,18,18,17,9,1505.txt
0,0,0,0,0,0,13,0,0,16,0,11,17,16,19,17,13,8,0,8,8,8,8,23,25,18,0,0,0,24,22,26,30,0,6,4,4,6,0,0,23,22,20,24,30,3,5,3,2,2,1507.txt
0,0,0,5,0,0,13,0,0,16,20,2,17,16,19,17,13,1,15,1,8,8,8,23,25,29,30,1,30,10,21,11,25,29,6,4,4,3,3,6,8,15,20,5,13,29,24,22,30,30,1509.txt
0,0,0,0,0,0,13,0,0,16,0,11,17,16,19,17,13,8,0,8,8,8,8,23,25,18,0,0,0,24,22,26,30,0,6,4,4,6,0,0,23,22,20,24,30,3,12,20,5,11,1511.txt
0,0,0,0,0,0,13,0,0,16,0,11,17,16,19,17,13,8,0,8,8,8,8,23,25,18,0,0,0,24,9,4,16,30,6,4,4,6,0,0,22,15,20,13,9,19,8,3,3,7,1513.txt
0,0,0,0,0,0,13,0,0,16,0,11,17,16,19,17,13,8,0,8,8,8,8,23,25,18,0,0,0,24,9,4,16,30,6,4,4,6,0,0,14,15,20,13,9,19,10,0,20,8,1515.txt
0,0,0,0,0,0,13,0,0,16,25,11,17,16,19,17,13,8,24,8,8,8,8,21,26,29,30,25,7,28,9,26,8,13,6,4,4,18,8,9,6,15,20,13,10,29,24,18,30,30,1518.txt
0,0,0,0,0,0,13,0,0,16,0,2,17,16,19,17,13,8,0,8,8,8,8,23,25,18,0,0,0,24,9,4,16,30,6,4,4,6,0,0,14,15,20,4,4,19,5,3,2,2,1519.txt
0,0,0,0,0,0,13,0,0,16,0,11,17,16,19,17,13,8,0,8,8,8,8,23,25,0,0,0,0,24,9,30,16,30,19,4,4,9,0,0,14,15,20,5,13,3,11,16,5,18,1521.txt
0,0,0,0,0,0,13,0,0,16,0,11,17,16,19,17,13,8,0,8,8,8,8,23,25,18,0,0,0,24,9,26,8,13,6,4,4,6,21,4,5,15,20,13,9,3,11,20,7,14,1523.txt
0,0,0,0,0,0,13,0,0,16,0,11,17,16,19,17,13,8,0,8,9,9,9,23,25,18,0,0,0,24,9,30,16,30,6,4,4,6,0,0,8,15,20,4,4,3,10,6,0,0,1526.txt
0,0,0,0,0,0,13,0,0,16,0,4,17,16,19,17,13,8,0,8,8,8,8,23,25,18,0,0,0,24,9,4,16,30,6,4,4,6,0,0,14,15,20,4,4,19,5,3,2,2,1528.txt
30,9,1,28,4,19,17,10,6,7,22,23,24,5,5,19,8,4,13,6,16,30,18,6,7,10,9,1,30,8,20,20,21,27,9,12,8,30,12,14,13,11,23,12,18,24,30,16,30,1,1529.txt
0,0,17,4,8,5,22,27,26,28,2,11,11,12,15,26,27,8,20,8,12,14,16,17,21,30,19,19,0,19,9,26,7,13,30,25,25,24,21,5,8,15,20,13,9,5,11,20,22,11,1532.txt
0,0,0,0,0,0,13,0,0,16,0,2,17,16,19,17,13,8,0,8,8,8,8,23,25,18,0,0,0,24,9,26,16,30,6,4,4,6,0,0,5,15,20,4,4,3,5,3,2,2,1534.txt
30,9,1,28,4,13,26,7,6,7,22,23,24,8,4,19,5,20,9,19,4,5,27,4,1,10,9,5,29,5,3,5,3,15,18,5,30,30,7,8,12,25,10,11,6,22,21,30,21,9,1536.txt
12,11,21,4,8,5,22,27,21,28,2,2,11,12,26,29,29,2,28,2,12,15,17,18,2,17,19,29,24,19,9,19,16,6,30,24,24,2,22,22,8,4,18,13,9,19,0,0,0,0,1538.txt
0,0,0,0,0,0,13,0,0,16,0,11,17,16,19,17,13,8,0,8,8,8,8,23,25,18,0,0,0,24,22,30,30,0,6,4,4,6,0,0,23,22,20,24,30,3,10,6,0,0,1540.txt
0,0,0,0,0,0,13,0,0,16,10,11,17,16,19,17,13,8,6,8,8,8,8,23,25,4,5,11,18,8,22,26,30,0,6,4,4,18,10,30,23,22,20,24,30,3,2,11,4,10,1543.txt
0,0,0,0,0,0,13,0,0,16,0,11,17,16,19,17,13,8,0,8,8,8,8,23,25,18,0,0,0,24,22,26,30,0,6,4,4,6,0,0,23,22,20,24,30,3,5,3,2,2,1545.txt
30,18,1,29,10,24,16,17,6,5,25,30,29,23,1,19,8,1,11,1,11,11,29,6,27,23,28,25,30,28,18,24,9,22,1,7,12,17,14,25,28,12,30,14,25,22,7,22,23,19,1546.txt
0,0,0,0,0,0,13,0,0,16,0,11,17,16,19,17,13,8,0,8,8,8,8,23,25,18,0,0,0,24,22,30,30,0,6,4,4,6,0,0,23,22,20,24,30,3,12,20,7,13,1548.txt
0,0,0,0,0,0,13,0,0,16,0,11,17,16,19,17,13,8,0,8,8,8,8,23,25,18,0,0,0,24,9,26,16,30,6,4,4,6,0,0,6,15,20,4,4,3,5,3,2,2,1551.txt
0,0,0,0,0,0,13,0,0,16,0,11,17,16,19,17,13,8,0,8,8,8,8,23,25,0,0,0,0,24,11,4,2,30,19,4,4,9,23,4,14,3,20,13,9,2,10,6,0,0,1552.txt
0,0,0,0,0,0,13,0,0,16,0,2,17,16,19,17,13,8,0,8,8,8,8,23,25,18,0,0,0,24,9,4,16,30,6,4,4,6,22,22,5,15,20,13,12,19,5,3,2,2,1556.txt
0,0,0,0,0,0,13,0,0,16,0,11,17,16,19,17,13,8,0,8,8,8,8,0,0,18,0,0,0,24,22,30,30,0,6,4,4,6,0,0,23,22,20,24,30,3,5,3,2,2,1558.txt
0,0,0,0,0,0,13,0,0,16,0,11,17,16,19,17,13,8,0,8,8,8,8,23,25,18,0,0,0,24,22,30,30,0,6,4,4,6,0,0,23,22,20,24,30,3,10,6,0,0,1561.txt
0,0,0,0,0,0,13,0,0,16,0,11,17,16,19,17,13,8,0,8,8,8,8,23,25,18,0,0,0,24,22,30,30,0,6,4,4,18,11,10,23,22,20,24,30,3,23,5,6,24,1563.txt
0,0,0,0,0,0,13,0,0,16,0,11,17,16,19,17,13,8,0,8,8,8,8,23,25,18,0,0,0,24,8,4,16,30,6,4,4,6,0,0,14,15,20,13,9,19,10,6,0,0,1565.txt
0,0,0,0,0,0,13,0,0,16,20,11,17,16,19,17,13,8,16,8,8,8,8,23,25,29,30,20,30,10,9,4,7,30,6,4,4,18,8,9,18,15,20,13,9,19,24,16,30,30,1567.txt
0,0,0,0,0,0,13,0,0,16,0,11,17,16,19,17,13,8,0,8,8,8,8,23,25,18,0,0,0,24,22,26,30,0,6,4,4,6,0,0,23,23,20,0,0,5,5,3,2,2,1570.txt
0,0,0,0,0,0,13,0,0,16,0,11,17,16,19,17,13,8,0,8,8,8,8,23,25,18,0,0,0,24,9,30,14,30,6,4,4,6,0,0,8,15,20,4,4,3,11,20,5,11,1572.txt
0,0,0,0,0,0,13,0,0,16,0,11,17,16,19,17,13,8,0,8,8,8,8,23,25,18,0,0,0,24,11,4,16,30,6,4,4,6,0,0,14,15,20,13,11,19,21,20,21,9,1574.txt
0,0,0,0,0,0,13,0,0,16,0,11,17,16,19,17,13,8,0,8,8,8,8,23,25,18,0,0,0,24,9,30,16,30,6,4,4,6,0,0,8,15,20,13,9,3,10,6,20,17,1581.txt
0,0,0,0,0,0,13,0,0,16,8,11,17,16,19,17,13,8,6,8,8,8,8,0,0,29,30,20,23,8,22,4,30,0,6,4,4,18,8,9,23,22,20,24,30,19,5,3,2,2,1583.txt
0,11,0,0,0,0,13,0,0,16,0,2,17,16,19,17,13,21,0,25,8,8,8,23,25,18,0,0,0,24,9,4,16,30,6,4,4,6,21,23,5,15,20,4,4,19,15,20,23,13,1585.txt
0,0,1,10,4,3,3,3,28,8,25,20,16,5,14,3,3,19,29,19,18,26,13,30,29,10,9,25,5,28,4,8,12,8,10,12,30,10,15,11,19,27,20,9,1,1,11,26,13,11,1587.txt
0,0,0,0,0,0,13,0,0,16,0,11,17,16,19,17,13,8,0,8,8,8,8,23,25,18,0,0,0,24,22,30,30,0,6,4,4,6,0,0,23,22,20,24,30,5,5,3,2,2,1589.txt
0,0,0,0,0,0,13,0,0,16,8,11,17,16,19,17,13,8,6,8,8,8,8,19,15,6,7,10,13,8,22,4,30,0,6,4,4,18,8,9,23,22,20,24,30,19,5,3,2,2,1590.txt
0,0,0,0,0,0,13,0,0,16,0,0,17,16,19,17,13,8,0,8,8,8,8,23,25,18,0,0,0,24,11,26,2,13,6,4,4,6,0,0,8,15,20,13,9,3,11,26,13,11,1594.txt
0,0,0,0,0,0,13,0,0,16,25,11,17,16,19,17,13,8,16,8,8,8,8,23,25,24,11,25,15,28,9,30,16,30,6,4,4,18,1,1,8,15,20,4,4,3,10,6,0,0,1596.txt
0,0,0,0,0,0,13,0,0,16,0,11,17,16,19,17,13,8,0,8,8,8,8,23,25,18,0,0,0,24,22,26,30,0,6,4,4,6,0,0,23,22,20,24,30,3,2,11,4,10,1598.txt
0,0,0,0,0,0,13,0,0,16,0,11,17,16,19,17,13,8,0,8,8,8,8,23,25,18,0,0,0,24,9,26,8,30,6,4,4,6,23,23,7,15,20,13,12,3,2,21,4,10,1600.txt
0,0,0,0,0,0,13,0,0,16,0,2,17,16,19,17,13,8,0,8,8,8,8,23,25,18,0,0,0,24,9,4,16,30,6,4,4,6,25,23,4,15,20,4,4,19,11,20,22,13,1602.txt
0,0,0,0,0,0,13,0,0,16,0,11,17,16,19,17,13,8,0,8,8,8,8,23,25,18,0,0,0,24,8,30,16,30,6,4,4,6,23,23,8,15,20,13,9,3,30,28,26,30,1604.txt
0,0,0,0,0,0,13,0,0,16,0,11,17,16,19,17,13,8,0,8,8,8,8,23,25,18,0,0,0,24,9,4,16,30,6,4,4,6,21,24,14,15,20,13,9,19,5,3,2,2,1605.txt
0,0,0,0,0,0,13,0,0,16,0,11,17,16,19,17,13,8,0,8,8,8,8,23,25,18,0,0,0,24,9,26,16,30,6,4,4,6,0,0,5,15,20,13,9,22,11,16,23,18,1608.txt
0,0,0,0,0,0,13,0,0,16,0,11,17,16,19,17,13,8,0,8,8,8,8,23,25,18,0,0,0,24,22,26,30,0,6,4,4,6,0,0,23,22,20,24,30,3,12,20,5,13,1610.txt
0,0,0,0,0,0,13,0,0,16,0,2,17,16,19,17,13,8,0,8,8,8,8,23,25,18,0,0,0,24,16,30,16,30,6,4,4,6,23,23,8,15,20,4,4,3,10,6,20,17,1612.txt
0,0,0,0,0,0,13,0,0,16,8,11,17,16,19,17,13,8,6,8,8,8,8,23,25,6,7,15,7,10,22,30,30,0,19,4,4,18,8,9,23,22,20,24,30,3,5,3,2,2,1615.txt
0,0,0,0,0,0,13,0,0,16,0,11,17,16,19,17,13,8,0,8,8,8,8,23,25,18,0,0,0,24,2,30,16,30,6,4,4,6,0,0,22,3,20,13,12,19,10,6,0,0,1616.txt
0,0,0,0,0,0,13,0,0,16,0,0,17,16,19,17,13,8,0,8,8,8,8,21,23,18,0,0,0,24,22,4,30,0,6,4,4,6,21,23,23,22,20,24,30,19,30,20,30,30,1618.txt
0,0,0,0,0,0,13,0,0,16,25,11,17,16,19,17,13,8,26,8,8,8,8,23,25,10,9,25,30,28,9,26,16,30,6,4,4,18,8,9,5,15,20,4,4,3,30,18,30,30,1622.txt
0,0,0,0,0,0,13,0,0,16,0,11,17,16,19,17,13,8,0,8,8,8,8,23,25,18,0,0,0,24,11,30,8,30,6,4,4,6,0,0,14,15,20,13,12,3,10,6,18,17,1623.txt
0,0,0,0,0,0,13,0,0,16,0,11,17,16,19,17,13,8,0,8,8,8,8,23,25,18,0,0,0,24,22,26,30,0,6,4,4,6,0,0,23,22,20,24,30,3,5,3,2,2,1626.txt
0,0,0,0,0,0,13,0,0,16,0,11,17,16,19,18,11,8,0,8,8,8,8,23,25,0,0,0,0,24,22,30,30,0,19,4,4,9,0,0,23,22,4,24,30,3,10,6,0,0,1629.txt
0,0,0,0,0,0,13,0,0,16,0,11,17,16,19,17,13,8,0,8,8,8,8,23,25,18,0,0,0,24,11,30,8,13,6,4,4,6,23,4,8,15,20,13,9,3,11,21,22,11,1631.txt
0,0,0,0,0,0,13,0,0,16,0,11,17,16,19,17,13,8,0,8,8,8,8,23,25,18,0,0,0,24,9,26,16,30,6,4,4,6,21,23,22,15,20,4,4,3,5,3,2,2,1632.txt
0,0,0,0,0,0,13,0,0,16,0,2,17,16,19,17,13,8,0,8,8,8,8,23,25,18,0,0,0,24,11,4,16,30,6,4,4,6,25,24,14,15,20,13,9,19,10,0,0,0,1637.txt
0,0,0,0,0,0,13,0,0,16,0,11,17,16,19,17,13,8,0,8,8,8,8,23,25,18,0,0,0,24,9,4,16,30,6,4,4,6,0,0,5,15,20,4,4,19,14,20,22,11,1639.txt
30,29,27,1,18,19,1,7,6,5,10,30,14,5,27,19,1,1,6,1,11,11,4,15,27,6,7,20,15,8,27,10,22,29,1,12,5,17,19,30,29,7,26,27,23,8,30,5,30,24,1641.txt
0,0,27,28,4,13,3,10,5,7,8,30,25,5,4,19,1,16,6,19,22,26,4,15,27,1,1,25,23,28,1,1,13,1,6,8,14,18,8,9,23,22,20,24,30,7,26,5,30,30,1643.txt
0,0,0,0,0,0,13,0,0,16,0,11,17,16,19,17,13,8,0,8,8,8,8,23,25,18,0,0,0,24,22,30,30,0,6,4,4,6,0,0,23,22,20,24,30,3,10,6,0,0,1645.txt
0,0,0,0,0,0,13,0,0,16,0,11,17,16,19,17,13,8,0,8,8,8,8,23,25,18,0,0,0,24,22,30,30,0,6,4,4,6,0,0,23,22,20,24,30,5,12,20,5,9,1647.txt
0,0,0,0,0,0,13,0,0,16,0,11,17,16,19,17,13,8,0,8,8,8,8,23,25,18,0,0,0,24,9,26,16,30,6,4,4,6,0,0,5,15,20,4,4,3,5,3,2,2,1650.txt
0,0,0,0,0,0,13,0,0,16,0,11,17,16,19,17,13,8,0,8,8,8,8,23,25,18,0,0,0,24,9,4,16,30,6,4,4,6,0,0,14,15,20,13,12,19,11,20,22,9,1652.txt
0,0,0,0,0,0,13,0,0,16,0,11,17,16,19,17,13,8,0,8,8,8,8,21,23,18,0,0,0,25,22,30,30,0,6,4,4,6,0,0,23,22,20,24,30,3,0,6,0,0,1654.txt
0,0,0,0,0,0,13,0,0,16,0,11,17,16,19,17,13,8,0,8,8,8,8,23,25,18,0,0,0,24,11,30,8,30,6,4,4,6,23,23,8,15,20,13,9,3,10,6,0,0,1655.txt
0,0,0,0,0,0,13,0,0,16,0,11,17,16,19,17,13,8,0,8,8,8,8,23,25,18,0,0,0,24,22,26,30,0,6,4,4,6,0,0,23,22,20,24,30,3,12,11,23,18,1657.txt
0,0,0,0,0,0,13,0,0,16,0,11,17,16,19,17,13,8,0,8,8,8,8,23,25,18,0,0,0,24,22,26,30,0,6,4,4,6,0,0,23,22,20,24,30,3,5,3,2,2,1660.txt
0,0,0,0,0,0,13,0,0,16,0,2,17,16,19,17,13,8,0,8,8,8,8,23,25,18,0,0,0,24,9,4,16,13,6,4,4,6,21,23,18,15,20,4,4,19,24,16,30,30,1662.txt
0,0,0,0,0,0,13,0,0,16,0,11,17,16,19,17,13,8,0,8,8,8,8,23,25,18,0,0,0,24,9,30,8,30,6,4,4,6,23,23,5,15,20,13,9,3,5,3,2,2,1663.txt
0,0,0,0,0,0,13,0,0,16,0,11,17,16,19,17,13,8,0,8,8,8,8,19,15,18,0,0,0,24,11,4,16,30,6,4,4,6,21,2,14,15,20,13,10,19,10,0,18,8,1666.txt
12,11,21,4,8,5,22,27,22,20,2,15,11,28,24,30,2,21,17,25,13,14,16,16,18,16,19,18,4,19,9,26,16,19,15,23,25,11,21,4,24,4,2,6,9,3,2,20,4,10,1667.txt
0,0,0,0,0,0,13,0,0,16,0,11,18,17,21,17,13,8,0,8,9,9,28,23,25,18,0,0,0,24,22,30,30,0,6,0,18,6,0,0,0,22,20,24,30,3,2,26,4,10,1669.txt
0,0,0,0,0,0,13,0,0,16,0,11,17,16,19,17,13,8,0,8,8,8,8,23,25,18,0,0,0,25,22,26,30,0,6,4,4,6,0,0,23,22,20,24,30,3,5,3,2,2,1671.txt
0,0,0,0,0,0,13,0,0,16,8,11,17,16,19,17,13,8,6,8,8,8,8,23,25,12,12,13,18,22,22,30,30,0,6,4,4,18,8,9,23,22,20,24,30,3,12,12,5,16,1673.txt
0,0,0,0,0,0,13,0,0,16,0,11,17,16,19,17,13,8,0,8,8,8,8,23,25,18,0,0,0,24,9,30,16,30,6,4,4,6,0,0,5,15,20,13,9,3,5,3,2,2,1676.txt
0,0,0,0,0,0,13,0,0,16,0,11,17,16,19,17,13,8,0,8,8,8,8,23,25,18,0,0,0,24,9,26,8,30,6,4,4,6,21,4,5,15,20,3,10,3,2,20,4,10,1677.txt
0,0,0,0,0,0,13,0,0,16,0,11,17,16,19,17,13,8,0,8,8,8,8,23,25,18,0,0,0,24,11,26,16,30,6,4,4,6,0,0,5,15,20,13,9,3,11,20,23,13,1680.txt
30,29,1,22,10,13,3,3,28,11,20,20,7,5,4,3,3,20,9,13,10,10,13,30,12,27,29,5,7,5,6,15,26,29,14,7,30,4,9,8,25,21,24,14,25,10,11,22,22,9,1682.txt
0,0,1,1,4,19,1,4,4,8,25,20,16,5,5,19,1,4,13,1,22,26,4,1,27,1,1,25,5,28,4,8,9,8,1,12,8,21,15,14,29,7,20,14,1,1,11,21,7,14,1684.txt
0,0,0,0,0,0,13,0,0,16,0,11,17,16,19,17,13,8,0,8,8,8,8,23,25,0,0,0,0,24,22,30,30,0,19,4,4,9,0,0,23,22,3,24,30,3,5,3,2,2,1686.txt
0,0,0,0,0,0,13,0,0,16,0,11,17,16,19,17,13,8,0,8,8,8,8,23,25,18,0,0,0,24,22,26,30,0,6,4,4,6,0,0,23,22,20,24,30,0,5,3,2,2,1692.txt
0,0,0,0,0,0,13,0,0,16,20,11,17,16,19,17,13,8,11,8,8,8,8,23,25,10,9,20,15,1,8,30,16,30,6,4,4,22,26,14,22,15,20,13,9,3,30,20,26,1,1694.txt
0,0,0,0,0,0,13,0,0,16,0,11,17,16,19,17,13,8,0,8,8,8,8,23,25,0,0,0,0,24,22,30,30,0,19,4,4,9,0,0,23,22,3,24,30,3,5,3,2,2,1696.txt
0,0,0,0,0,0,13,0,0,16,0,11,17,16,19,17,13,8,0,8,8,8,8,23,25,18,0,0,0,24,9,26,16,30,6,4,4,6,0,0,5,15,20,4,4,3,28,20,26,30,1698.txt
0,0,0,0,0,0,13,0,0,16,0,11,17,16,19,17,13,8,0,8,8,8,8,23,25,18,0,0,0,24,22,30,30,0,6,4,4,6,0,0,23,22,20,24,30,3,2,20,4,10,1699.txt
0,0,0,0,0,0,13,0,0,16,20,11,8,10,0,17,13,8,12,8,0,0,0,22,24,26,11,20,5,1,11,30,2,30,0,0,18,1,1,1,8,15,20,13,9,3,24,8,26,30,1701.txt
0,0,0,0,0,0,13,0,0,16,0,11,17,16,19,17,13,8,0,8,8,8,8,23,25,18,0,0,0,24,0,30,0,0,6,4,4,6,0,0,23,22,20,24,30,3,12,5,7,14,1705.txt
0,0,27,1,4,13,13,0,0,9,10,11,18,5,3,18,11,16,6,19,9,9,9,14,24,12,12,13,1,22,1,1,12,1,6,26,18,21,10,14,0,22,4,24,30,7,23,11,26,4,1707.txt
0,0,0,0,0,0,13,0,0,16,0,11,17,16,19,17,13,8,0,8,8,8,8,23,25,18,0,0,0,24,22,26,30,0,6,4,4,6,0,0,23,22,20,24,30,3,5,3,2,2,1709.txt
0,0,0,0,0,0,13,0,0,16,0,11,17,16,19,17,13,8,0,8,8,8,8,23,25,18,0,0,0,24,22,26,30,0,6,4,4,6,0,0,23,22,20,24,30,3,23,11,27,27,1715.txt
0,0,0,0,0,0,13,0,0,16,0,11,17,16,19,17,13,8,0,8,8,8,8,23,25,18,4,4,0,4,11,30,16,30,6,4,4,6,21,5,14,15,20,13,9,3,11,30,13,13,1717.txt
0,0,0,0,0,0,13,0,0,16,8,11,17,16,19,17,13,8,6,8,8,8,8,23,25,12,12,13,20,22,22,26,30,0,6,4,4,18,8,9,23,22,20,24,30,3,5,3,2,2,1720.txt
0,0,0,0,0,0,13,0,0,16,0,11,17,16,19,17,13,8,0,8,8,8,8,21,23,18,0,0,0,24,22,26,30,0,6,4,4,6,0,0,23,22,20,24,30,3,5,3,2,2,1723.txt
0,0,0,0,0,0,13,0,0,16,0,11,17,16,19,17,13,8,0,8,8,8,8,21,23,18,0,0,0,25,22,26,30,0,6,4,4,6,0,0,23,22,20,24,30,3,5,3,2,2,1725.txt
0,0,0,0,0,0,13,0,0,16,0,11,17,16,19,17,13,8,6,8,8,8,8,21,26,1,1,25,23,28,22,30,30,0,19,4,4,15,28,14,23,22,20,24,30,3,26,5,26,24,1727.txt
0,0,0,0,0,0,13,0,0,16,0,11,17,16,19,17,13,8,0,8,8,8,8,23,25,18,4,4,0,4,9,4,16,30,6,4,4,6,0,0,14,15,20,4,4,19,0,6,20,8,1728.txt
0,0,0,0,0,0,13,0,0,16,0,11,17,16,19,17,13,8,0,8,8,8,8,23,25,18,0,0,0,24,22,26,30,0,6,4,4,18,8,9,23,22,20,24,30,3,4,23,30,24,1732.txt
0,0,0,0,0,0,13,0,0,16,0,11,17,16,19,17,13,8,0,8,8,8,8,23,25,18,0,0,0,24,11,30,16,30,6,4,4,6,23,23,8,15,20,13,9,3,10,6,20,17,1734.txt
0,0,0,0,0,0,13,0,0,16,0,11,17,16,19,17,13,8,0,8,8,8,8,23,25,18,4,4,0,4,11,0,16,30,6,4,4,6,0,0,8,15,20,13,9,3,11,20,5,21,1735.txt
0,0,0,0,0,0,13,0,0,16,0,11,17,16,19,17,13,8,0,8,8,8,8,23,25,0,0,0,0,24,22,30,30,0,19,4,4,9,0,0,23,22,20,24,30,5,12,5,5,11,1737.txt
0,0,0,0,0,0,13,0,0,16,0,11,17,16,19,17,13,8,0,8,8,8,8,23,25,18,0,0,0,24,9,26,16,30,6,4,4,6,0,0,5,15,20,4,4,3,5,3,2,2,1739.txt
0,0,0,0,0,0,13,0,0,16,0,2,17,16,19,17,13,8,0,8,8,8,8,23,25,18,0,0,0,24,9,4,16,30,6,4,4,6,0,0,14,15,20,13,12,19,5,3,2,2,1744.txt
0,11,0,0,0,0,13,0,0,16,22,2,17,16,19,17,13,2,16,2,8,8,8,23,25,10,9,20,13,8,9,4,16,30,6,4,4,18,8,9,22,15,20,13,11,20,5,3,2,2,1745.txt
0,0,0,0,0,0,13,0,0,16,0,11,17,16,19,17,13,8,0,8,8,8,8,23,25,18,0,0,0,24,11,30,2,30,6,4,4,6,23,4,24,15,20,13,10,3,11,26,13,13,1747.txt
0,0,0,0,0,0,13,0,0,16,0,2,8,10,0,17,13,8,0,8,0,17,0,23,25,19,4,4,0,4,16,4,16,30,0,0,0,0,0,0,8,15,20,4,4,2,11,26,13,9,1749.txt
0,0,0,0,0,0,13,0,0,16,0,11,17,16,19,17,13,8,0,8,8,8,8,23,25,18,0,0,0,24,9,4,16,30,6,4,4,6,21,22,21,15,20,4,4,20,5,3,2,2,1751.txt
0,11,21,4,8,5,22,27,21,28,2,2,11,29,25,30,2,21,28,25,12,15,17,17,2,30,19,19,0,19,11,4,16,30,30,24,24,25,22,23,8,15,20,13,11,19,10,6,0,0,1755.txt
0,0,0,0,0,0,13,0,0,16,0,11,17,16,19,17,13,8,0,8,8,8,8,23,25,18,0,0,0,24,22,4,30,0,6,4,4,6,0,0,23,22,20,24,30,19,5,3,2,2,1759.txt
0,0,0,0,0,0,13,0,0,16,0,11,17,16,19,17,13,8,0,8,8,8,8,23,25,18,0,0,0,24,9,26,16,30,6,4,4,6,0,0,8,15,20,5,13,3,5,3,2,2,1762.txt
30,29,16,1,10,22,1,7,6,11,20,30,7,5,1,19,5,5,9,6,10,10,29,4,12,29,30,5,15,5,30,11,27,10,13,7,5,4,9,8,16,11,14,20,28,29,21,9,21,9,1764.txt
12,11,25,4,8,7,24,30,2,22,2,15,2,19,25,29,27,29,18,2,27,20,23,17,2,17,26,19,4,2,11,4,2,13,30,29,2,2,2,5,2,4,5,13,9,2,0,0,0,0,1765.txt
30,9,1,21,18,13,26,7,28,6,20,23,24,23,4,13,19,20,9,13,4,5,18,9,1,8,8,5,13,5,18,5,3,15,18,5,30,30,5,8,12,26,10,11,6,22,18,22,17,9,1769.txt
0,0,0,0,0,0,13,0,0,16,0,11,17,16,19,17,13,8,0,8,8,8,8,23,25,18,0,0,0,24,22,26,30,0,6,4,4,6,0,0,23,22,20,24,30,5,5,3,2,2,1771.txt
0,0,0,0,0,0,13,0,0,16,0,11,17,16,19,17,13,8,0,8,8,8,8,23,25,18,0,0,0,24,9,26,6,30,6,4,4,6,0,0,22,15,20,5,13,3,5,3,2,2,1774.txt
0,0,0,0,0,0,13,0,0,16,0,11,17,16,19,17,13,8,0,8,8,8,8,23,25,18,0,0,0,24,9,4,16,30,6,4,4,6,0,0,6,15,20,13,11,19,5,3,2,2,1775.txt
0,0,0,0,0,0,13,0,0,16,10,11,17,16,19,17,13,8,6,8,8,8,8,23,25,26,11,25,23,28,22,26,30,0,6,4,4,18,8,9,23,22,20,24,30,3,5,3,2,2,1778.txt
0,0,0,0,0,0,13,0,0,16,0,11,17,16,19,17,13,8,0,8,8,8,8,23,25,18,4,4,0,4,16,30,16,30,6,4,4,6,0,0,2,15,20,13,9,4,11,20,22,11,1780.txt
0,0,0,0,0,0,13,0,0,16,0,11,17,16,19,17,13,8,0,8,8,8,8,23,25,18,0,0,0,24,9,26,16,30,6,4,4,6,0,0,8,15,20,13,9,3,10,6,20,17,1783.txt
0,0,0,0,0,0,13,0,0,16,25,11,17,16,19,17,13,8,24,8,8,8,8,23,25,25,11,25,7,28,8,30,8,30,6,4,4,18,8,9,8,15,20,13,9,3,11,26,13,11,1784.txt
0,0,0,0,0,0,13,0,0,16,0,11,17,16,19,17,13,8,0,8,8,8,8,23,25,18,14,17,0,20,22,26,30,0,6,4,4,6,0,0,23,22,20,24,30,5,5,3,2,2,1787.txt
0,0,0,0,0,0,13,0,0,16,0,11,17,16,19,17,13,20,0,13,8,8,8,23,25,18,0,0,0,24,4,5,3,8,6,4,4,6,0,0,23,22,20,24,30,17,12,5,5,21,1789.txt
0,0,0,0,0,0,13,0,0,16,0,11,17,16,19,17,13,8,0,8,8,8,8,23,25,18,0,0,0,24,22,26,30,0,5,4,4,5,0,0,23,22,20,24,30,3,12,14,7,5,1791.txt
0,0,0,0,0,0,13,0,0,16,0,2,17,16,19,17,13,8,0,8,8,8,8,23,25,18,0,0,0,24,9,4,8,13,6,4,4,6,0,0,5,15,20,13,9,19,5,3,2,2,1794.txt
0,0,0,0,0,0,13,0,0,16,0,11,17,16,19,17,13,8,0,8,8,8,8,23,25,18,0,0,0,24,11,26,8,30,6,4,4,6,23,5,8,15,20,13,9,3,11,30,13,11,1798.txt
12,11,0,0,20,0,13,0,0,16,22,2,17,16,19,17,13,12,23,12,8,8,8,23,25,27,8,1,12,12,21,5,3,10,6,4,4,8,5,26,14,4,5,4,4,22,18,20,17,30,1800.txt
0,0,0,0,0,0,13,0,0,16,0,11,17,16,19,17,13,8,0,8,8,8,8,23,25,0,0,0,0,24,22,4,30,0,19,4,4,9,2,24,23,22,20,24,30,2,0,6,0,0,1801.txt
0,0,0,0,0,0,13,0,0,16,0,11,17,16,19,17,13,8,0,8,8,8,8,23,25,18,0,0,0,24,22,30,30,0,6,4,4,6,0,0,23,22,20,24,30,3,2,11,4,10,1803.txt
0,0,0,0,0,0,13,0,0,16,0,2,17,16,19,18,11,8,0,8,8,8,8,23,25,18,0,0,0,24,11,4,2,30,6,4,4,6,0,0,2,3,4,13,12,2,10,6,0,0,1805.txt
0,0,0,0,0,0,13,0,0,16,8,11,17,16,19,17,13,8,6,8,8,8,8,23,25,10,9,25,7,28,22,4,30,0,6,4,4,18,8,9,23,22,20,24,30,19,5,3,2,2,1808.txt
0,0,0,0,0,0,13,0,0,16,0,11,17,16,19,18,11,25,0,29,8,8,8,23,25,0,22,26,25,4,0,0,0,0,19,4,4,9,0,0,23,22,3,24,30,4,12,5,5,11,1810.txt
0,0,0,0,0,0,13,0,0,16,0,11,17,16,19,17,13,8,0,8,8,8,8,23,25,18,0,0,0,24,16,26,16,30,6,4,4,6,0,0,8,15,20,4,4,3,10,6,0,0,1812.txt
0,0,0,0,0,0,13,0,0,16,8,11,17,16,19,17,13,4,6,4,8,8,8,23,25,6,7,20,23,8,6,11,25,10,6,4,4,18,8,9,23,22,20,24,30,7,27,11,26,24,1814.txt
0,0,0,0,0,0,13,0,0,0,0,11,0,0,19,0,0,8,0,8,8,8,8,23,25,18,0,0,0,24,22,26,30,0,6,4,4,6,0,0,23,22,20,24,30,0,5,3,2,2,1816.txt
30,9,1,10,4,19,17,7,6,7,22,23,24,8,5,3,17,4,25,1,16,30,18,3,7,10,9,1,11,15,27,5,3,24,18,5,8,7,7,14,12,26,10,11,6,29,30,27,30,1,1818.txt
0,0,0,0,0,0,13,0,0,16,0,11,17,16,19,17,13,8,0,8,8,8,8,23,25,18,14,17,0,20,11,28,8,30,6,4,4,6,0,0,5,15,20,13,9,5,11,20,13,9,1820.txt
0,0,0,0,0,0,13,0,0,16,0,11,17,16,19,17,13,8,0,8,8,8,8,23,25,18,0,0,0,24,9,26,16,30,6,4,4,6,0,0,5,15,20,13,9,3,5,3,2,2,1824.txt
0,0,0,0,0,0,13,0,0,16,0,11,17,16,19,17,13,8,0,8,8,8,8,23,25,18,0,0,0,24,22,26,30,0,6,4,4,6,0,0,23,22,20,24,30,3,10,6,20,17,1825.txt
0,0,0,0,0,0,13,0,0,16,0,11,17,16,19,17,13,8,0,8,8,8,8,23,25,0,0,0,0,24,16,4,16,30,19,4,4,0,0,0,8,15,20,4,4,19,11,26,13,11,1827.txt
0,11,1,10,22,13,3,3,28,7,22,23,24,5,4,3,3,20,23,19,16,30,18,30,7,10,9,1,10,8,21,5,3,29,18,5,30,8,7,17,12,26,20,11,6,22,18,18,17,30,1830.txt
0,0,0,0,0,0,13,0,0,16,20,11,17,16,19,17,13,20,13,10,8,8,8,23,25,4,5,11,30,13,30,16,22,24,6,4,4,18,8,9,23,22,20,24,30,11,12,11,23,18,1831.txt
0,0,0,0,0,0,13,0,0,16,0,11,17,16,19,17,13,8,0,8,7,7,7,21,23,18,0,0,0,24,22,26,30,0,6,4,4,6,0,0,23,22,20,24,30,3,5,3,2,2,1833.txt
0,0,17,4,8,5,22,2,21,28,2,2,11,12,24,30,2,8,18,8,27,21,23,17,20,30,27,19,0,2,8,4,16,30,25,25,2,2,23,24,14,15,20,4,4,19,0,6,0,0,1836.txt
0,0,0,0,0,0,13,0,0,16,0,11,17,16,19,17,13,8,0,8,8,8,8,23,25,18,0,0,0,24,22,26,30,0,6,4,4,6,0,0,23,22,20,24,30,3,5,3,2,2,1838.txt
30,25,16,29,10,24,17,10,7,11,20,30,7,5,8,19,5,22,9,9,11,11,30,4,27,29,30,5,30,5,25,21,29,27,8,7,12,4,9,8,16,29,14,16,22,18,21,16,21,9,1840.txt
0,0,0,0,0,0,13,0,0,16,25,11,17,16,19,17,13,4,13,7,8,8,8,23,25,13,20,15,21,13,15,12,22,18,6,4,4,21,27,14,23,22,20,24,30,1,12,10,7,14,1842.txt
0,0,0,0,0,0,13,0,0,16,0,11,17,16,19,17,13,8,0,8,8,8,8,21,23,18,0,0,0,24,22,26,30,0,6,4,4,1,8,9,23,22,20,24,30,3,5,3,2,2,1844.txt
0,0,0,0,0,0,13,0,0,16,0,11,17,16,19,17,13,8,0,8,8,8,8,23,25,18,0,0,0,24,22,26,30,0,6,4,4,6,0,0,23,22,20,24,30,3,5,3,2,2,1847.txt
0,0,0,0,0,0,13,0,0,16,0,11,17,16,19,17,13,8,0,8,8,8,8,23,25,18,0,0,0,24,22,26,30,0,6,4,4,6,0,0,23,22,20,24,30,3,5,3,2,2,1850.txt
0,0,0,0,0,0,13,0,0,16,0,11,17,16,19,17,13,8,0,8,8,8,8,23,25,18,0,0,0,24,22,26,30,0,6,4,4,6,0,0,23,22,20,24,30,3,5,3,2,2,1851.txt
0,0,1,28,18,13,3,4,6,5,20,8,25,5,14,17,13,20,13,28,21,25,4,6,30,26,11,16,30,13,4,8,29,8,6,8,30,21,28,16,23,22,20,24,30,11,2,15,4,10,1854.txt
0,11,17,4,8,5,22,30,16,18,2,11,2,14,17,29,29,21,18,25,13,13,15,25,20,30,19,29,0,19,16,30,16,5,25,29,17,25,23,24,8,15,20,4,4,3,10,6,0,0,1855.txt
0,0,0,0,0,0,13,0,0,16,0,11,17,16,19,17,13,8,0,8,8,8,8,23,25,18,0,0,0,24,22,26,30,0,6,4,4,6,0,0,23,22,20,24,30,3,5,3,2,2,1858.txt
0,0,0,0,0,0,13,0,0,16,0,11,17,16,19,17,13,8,0,8,8,8,8,23,25,18,0,0,0,24,22,26,30,0,6,4,4,6,0,0,23,22,20,24,30,3,5,3,2,2,1860.txt
0,0,25,4,8,8,24,30,22,2,2,11,2,2,30,28,30,4,17,1,2,21,24,16,2,16,27,18,0,2,4,8,9,8,15,28,2,11,2,4,14,3,3,3,9,1,11,21,22,13,1861.txt
0,0,0,0,0,0,13,0,0,16,0,11,17,16,19,17,13,20,0,12,8,8,8,23,25,0,0,0,0,24,3,7,18,7,19,4,4,9,0,0,23,22,3,24,30,17,12,20,5,9,1863.txt
0,0,0,0,0,0,13,0,0,16,0,11,17,16,19,17,13,8,0,8,8,8,8,23,25,18,0,0,0,24,22,30,30,0,6,4,4,6,23,2,23,22,20,24,30,3,10,6,20,8,1865.txt
0,0,0,0,0,0,13,0,0,16,0,11,17,16,19,17,13,8,0,8,8,8,8,23,25,18,0,0,0,24,22,26,30,0,6,4,4,6,0,0,23,22,20,24,30,3,5,3,2,2,1867.txt
0,0,16,1,10,19,1,10,8,9,8,30,25,5,5,19,1,4,6,7,22,26,11,15,27,29,30,11,23,8,20,10,21,23,1,7,8,13,28,14,29,7,20,26,25,7,23,29,30,24,1870.txt
0,0,0,0,0,0,13,0,0,16,0,11,17,16,19,17,13,8,0,8,8,8,8,23,25,18,0,0,0,24,22,30,30,0,6,4,4,6,21,4,23,22,20,24,30,3,5,3,2,2,1872.txt
30,18,27,10,4,18,3,3,28,7,0,19,25,22,14,3,3,16,6,19,22,26,12,30,28,10,9,25,19,28,4,5,3,8,18,5,30,22,10,18,19,25,26,15,6,7,7,20,23,19,1874.txt
0,0,0,0,0,0,13,0,0,16,0,11,17,16,19,17,13,8,0,8,8,8,8,23,25,18,0,0,0,24,22,26,30,0,6,4,4,6,0,0,23,23,20,0,0,3,12,11,10,5,1876.txt
12,11,17,4,8,5,22,21,21,28,11,18,11,12,15,24,25,21,28,25,13,14,16,17,16,30,19,19,2,19,9,19,16,12,25,20,15,25,21,23,5,4,22,13,9,19,5,3,2,2,1879.txt
0,0,0,0,0,0,13,0,0,16,0,11,17,16,19,17,13,8,0,8,8,8,8,23,25,18,0,0,0,24,9,30,16,30,6,4,4,6,0,0,5,15,20,4,4,3,5,3,2,2,1880.txt
0,0,0,0,0,0,13,0,0,16,0,11,17,16,19,17,13,8,0,8,8,8,8,23,25,0,4,4,0,4,11,30,8,13,19,4,4,9,0,0,8,15,20,13,9,5,11,8,22,11,1884.txt
0,0,0,0,0,0,13,0,0,16,0,11,17,16,19,17,13,8,0,8,8,8,8,23,25,18,0,0,0,24,9,4,16,30,6,4,4,6,21,23,5,15,20,13,9,21,5,3,2,2,1885.txt
0,0,0,0,0,0,13,0,0,16,8,11,17,16,19,17,13,8,6,8,8,8,8,23,25,6,7,10,13,10,22,26,30,0,6,4,4,18,8,9,23,22,20,24,30,3,5,3,2,2,1887.txt
0,0,0,0,0,0,13,0,0,16,0,12,17,16,10,17,13,8,0,8,8,8,8,23,25,18,0,0,0,24,22,26,30,0,6,4,4,6,0,0,23,22,20,24,30,3,5,25,2,2,1890.txt
0,0,0,0,0,0,13,0,0,16,0,11,17,16,19,17,13,8,0,8,8,8,8,23,25,18,0,0,0,24,22,4,30,0,6,4,4,6,23,4,23,22,20,24,30,19,6,3,3,3,1892.txt
0,0,16,10,10,19,1,3,3,8,4,6,24,5,5,17,13,4,15,1,4,5,27,30,1,4,5,1,30,11,21,14,25,10,6,7,5,30,12,14,18,15,20,13,9,11,11,21,13,11,1894.txt
0,0,0,0,0,0,13,0,0,16,0,2,17,16,19,17,13,8,0,8,8,8,8,23,25,18,0,0,0,24,9,3,16,30,6,4,4,6,21,5,5,15,20,4,4,19,5,3,2,2,1898.txt
30,9,1,28,5,13,26,4,6,5,22,23,24,23,29,19,5,20,11,10,16,30,18,4,5,11,10,6,13,6,13,23,21,16,12,19,30,3,3,13,12,12,10,11,18,24,7,16,10,18,1900.txt
0,0,0,0,0,0,13,0,0,16,0,11,17,16,19,17,13,8,0,8,8,8,8,23,25,18,0,0,0,24,22,4,30,0,6,4,4,6,23,2,23,22,20,24,30,19,10,6,0,0,1901.txt
0,0,0,0,0,0,13,0,0,16,8,11,17,16,19,17,13,8,6,8,8,8,8,23,25,12,12,13,20,22,22,26,30,0,6,4,4,18,8,9,23,22,20,24,30,3,5,3,2,2,1903.txt
0,0,0,0,0,0,13,0,0,16,0,11,17,16,19,17,13,8,0,8,8,8,8,23,25,18,0,0,0,24,22,26,30,0,6,4,4,6,0,0,23,22,20,24,30,3,5,3,2,2,1906.txt
0,11,25,4,8,5,22,30,22,20,2,11,11,28,24,28,30,29,17,2,2,20,24,16,2,16,26,18,0,2,11,4,16,30,30,25,2,11,25,4,14,15,20,13,10,1,15,20,13,11,1908.txt
0,0,0,0,0,0,13,0,0,16,0,11,17,16,19,17,13,8,0,8,8,8,8,23,25,18,0,0,0,24,11,30,16,30,6,4,4,6,0,0,8,15,20,13,9,3,10,6,0,0,1911.txt
30,9,1,10,18,4,4,7,29,11,20,14,27,8,11,12,20,12,9,28,16,30,18,10,7,21,8,5,13,5,25,16,29,28,22,12,29,30,7,8,20,10,23,12,22,10,18,13,17,9,1913.txt
0,0,0,0,0,0,13,0,0,16,0,11,17,16,19,17,13,8,0,8,8,8,8,23,25,18,0,0,0,24,22,26,30,0,6,4,4,6,0,0,23,22,20,24,30,3,12,11,10,18,1914.txt
30,18,1,22,18,9,3,3,28,6,25,24,14,4,11,9,15,3,26,27,11,11,13,9,29,29,30,25,7,28,15,25,4,18,16,14,29,17,27,16,30,26,30,15,6,30,26,10,27,27,1916.txt
30,29,1,10,4,13,3,3,28,7,20,30,22,5,14,3,22,20,29,19,22,26,4,30,29,1,1,15,5,1,1,1,25,1,10,17,30,22,18,13,19,1,26,9,1,1,11,21,13,11,1919.txt
0,0,16,29,10,19,1,10,5,17,0,30,3,5,5,19,1,4,0,1,22,26,11,15,30,18,0,0,0,24,1,1,18,1,1,7,21,6,0,0,29,7,20,15,28,29,26,20,26,24,1921.txt
0,0,0,0,0,0,13,0,0,16,0,11,17,16,19,17,13,8,0,8,8,8,8,23,25,18,0,0,0,24,22,26,30,0,6,4,4,6,0,0,23,22,20,24,30,3,2,17,4,10,1923.txt
0,0,0,0,0,0,13,0,0,16,0,11,17,16,19,17,13,8,0,8,8,8,8,23,25,18,0,0,0,24,9,4,8,30,6,4,4,6,0,0,7,15,20,13,9,20,5,3,2,2,1926.txt
0,0,0,0,0,0,13,0,0,16,0,11,17,16,19,17,13,8,0,8,8,8,8,23,25,18,0,0,0,24,9,26,7,13,6,4,4,6,21,5,5,15,20,13,9,3,5,3,2,2,1928.txt
0,0,0,0,0,0,13,0,0,16,0,11,17,16,19,17,13,8,0,8,8,8,8,23,25,18,0,0,0,24,9,4,16,30,6,4,4,6,0,0,22,17,20,13,9,20,5,3,2,2,1930.txt
0,0,0,0,0,0,13,0,0,16,0,11,17,16,19,17,13,8,0,8,8,8,8,23,25,18,0,0,0,24,9,4,16,30,6,4,4,6,0,0,14,15,20,13,9,19,11,20,23,19,1932.txt
0,0,0,0,0,0,13,0,0,16,0,11,17,16,19,17,13,8,0,8,8,8,8,23,25,18,0,0,0,24,9,30,8,30,6,4,4,6,25,5,5,15,20,13,12,3,5,3,2,2,1934.txt
0,0,0,0,0,0,13,0,0,16,0,11,17,16,19,17,13,8,0,8,8,8,8,23,25,18,0,0,0,24,22,26,30,0,6,4,4,6,0,0,23,22,20,24,30,3,5,3,2,2,1937.txt
0,0,0,0,0,0,13,0,0,16,0,11,17,16,19,17,13,8,0,8,8,8,8,23,25,18,0,0,0,24,22,30,30,0,6,4,4,6,0,0,23,22,20,24,30,3,5,3,2,2,1938.txt
0,0,0,0,0,0,13,0,0,16,0,11,17,16,19,17,13,8,0,8,8,8,8,23,25,18,14,17,0,20,22,26,30,0,6,4,4,6,0,0,23,22,20,24,30,3,5,3,2,2,1941.txt
0,0,0,0,0,0,13,0,0,16,0,11,17,16,19,17,13,8,0,8,8,8,8,23,25,18,0,0,0,24,22,4,30,0,6,4,4,6,0,0,23,22,20,24,30,19,5,3,2,2,1942.txt
0,0,0,0,0,0,13,0,0,16,0,11,17,16,19,17,13,8,6,8,8,8,8,23,25,3,3,3,23,22,22,26,30,0,6,4,4,18,11,10,23,22,20,24,30,3,10,6,0,0,1944.txt
0,0,17,4,8,5,22,21,16,28,11,11,11,12,15,24,25,8,18,8,13,14,16,17,16,30,19,19,0,19,9,4,16,12,25,20,15,2,21,24,5,15,20,13,9,19,13,16,7,14,1947.txt
0,0,0,0,0,0,13,0,0,16,0,11,17,16,19,17,13,8,0,8,8,8,8,23,25,18,0,0,0,24,22,26,30,0,6,4,4,6,21,23,23,22,20,24,30,3,10,6,0,0,1948.txt
0,0,0,0,0,0,13,0,0,16,25,11,17,16,19,17,13,8,9,8,8,8,8,23,25,10,9,5,30,5,9,4,8,13,6,4,4,18,8,9,22,15,20,13,11,19,5,3,2,2,1951.txt
0,0,0,0,0,0,13,0,0,16,0,11,17,16,19,17,13,8,0,8,8,8,8,23,25,18,0,0,0,24,9,26,6,30,6,4,4,6,0,0,5,15,20,13,9,3,5,3,2,2,1952.txt
0,0,0,0,0,0,13,0,0,16,0,11,17,16,19,17,13,8,0,8,8,8,8,23,25,18,0,0,0,24,9,4,7,13,6,4,4,6,0,0,14,15,20,13,12,19,8,3,3,7,1954.txt
0,11,17,4,8,5,22,27,22,28,11,2,11,12,15,30,2,21,17,25,13,14,16,16,18,16,19,18,0,19,9,26,6,12,25,23,25,11,21,4,5,15,20,6,9,11,13,17,7,14,1956.txt
0,0,0,0,0,0,13,0,0,16,0,11,17,16,19,17,13,8,0,8,8,8,8,23,25,18,0,0,0,24,9,26,6,13,6,4,4,6,0,0,5,17,20,13,9,3,5,3,2,2,1959.txt
30,29,1,10,10,9,3,3,28,17,20,19,16,9,11,9,15,3,9,28,21,25,13,9,28,10,9,5,13,5,20,5,3,23,18,5,29,17,28,8,30,26,28,26,6,12,21,16,21,9,1961.txt
0,0,0,0,0,0,13,0,0,16,0,2,17,16,19,17,13,8,0,8,8,8,8,23,25,18,0,0,0,24,9,26,16,30,6,4,4,6,0,0,5,15,20,13,11,3,5,3,2,2,1964.txt
0,0,1,28,18,13,3,4,6,5,0,7,3,5,14,19,1,20,0,10,3,3,3,6,3,18,0,0,0,24,4,8,13,8,12,8,30,6,0,0,17,8,20,16,18,24,12,10,23,18,1965.txt
0,0,0,0,0,0,13,0,0,16,0,11,17,16,19,17,13,8,0,8,8,8,8,23,25,18,0,0,0,24,11,4,16,13,6,4,4,6,0,0,6,15,20,13,11,19,11,21,22,13,1970.txt
0,0,1,28,4,19,1,10,6,7,0,30,3,5,5,19,1,4,0,1,22,26,4,1,29,18,0,0,0,24,4,8,13,8,6,12,5,6,0,0,5,15,20,13,9,9,2,20,4,10,1973.txt
0,0,0,0,0,0,13,0,0,16,0,2,17,16,19,17,13,8,0,8,8,8,8,23,25,18,0,0,0,24,9,4,16,30,6,4,4,6,21,5,5,15,20,4,4,19,11,18,14,11,1974.txt
0,0,0,0,0,0,13,0,0,16,0,11,17,16,19,17,13,8,0,8,8,8,8,23,25,18,0,0,0,24,22,26,30,0,6,4,4,6,24,23,23,22,19,24,30,3,5,3,2,2,1976.txt
0,0,0,0,0,0,13,0,0,16,0,11,17,16,19,17,13,8,0,8,8,8,8,23,25,18,0,0,0,24,22,26,30,0,6,4,4,6,0,0,23,23,20,0,0,5,12,11,5,5,1979.txt
0,0,0,0,0,0,13,0,0,16,0,11,17,16,19,17,13,8,0,8,8,8,8,23,25,18,0,0,0,24,22,26,30,0,6,4,4,6,0,0,23,22,20,24,30,3,12,26,5,11,1981.txt
0,0,0,0,20,0,13,0,0,0,0,2,0,0,19,0,0,8,0,8,8,8,8,0,0,18,14,17,0,20,11,4,8,13,6,4,4,6,0,0,21,15,20,13,11,19,8,3,3,7,1983.txt
30,29,1,21,10,22,17,3,28,6,20,19,14,15,6,9,20,11,9,6,11,11,10,9,27,23,23,5,13,5,13,5,3,15,18,5,11,17,18,8,30,26,29,26,6,22,21,15,21,9,1984.txt
30,27,16,10,22,9,6,10,28,7,22,30,23,15,11,12,20,3,9,28,26,27,30,10,28,10,9,5,30,5,25,16,29,27,22,10,29,21,28,8,30,29,28,22,22,12,21,13,21,9,1986.txt
17,11,16,10,10,10,21,3,28,27,2,20,5,3,14,15,21,20,18,12,19,23,13,30,28,30,26,29,4,2,4,8,21,8,1,7,30,23,15,13,29,7,5,21,25,24,15,27,23,19,1989.txt
0,0,0,0,0,0,13,0,0,16,25,11,17,16,19,17,13,4,14,1,8,8,8,24,26,29,30,25,30,28,1,1,9,1,19,4,4,17,28,14,23,22,20,24,30,29,26,20,26,24,1991.txt
0,0,0,0,0,0,13,0,0,16,0,11,17,16,19,17,13,8,0,8,8,8,8,23,25,18,0,0,0,25,22,26,30,0,6,4,4,6,0,0,23,22,20,24,30,3,18,11,17,12,1992.txt
0,0,0,0,0,0,13,0,0,16,0,11,17,16,19,17,13,8,0,8,8,8,8,23,25,18,0,0,0,24,22,4,30,0,6,4,4,6,0,0,23,22,20,24,30,19,0,6,24,8,1995.txt
0,0,0,0,0,0,13,0,0,16,0,11,17,16,19,17,13,8,0,8,8,8,8,23,25,18,0,0,0,24,9,26,16,30,6,4,4,6,0,0,5,15,20,13,12,19,5,3,2,2,1997.txt
12,11,17,4,8,5,22,30,21,28,2,11,13,14,25,26,29,29,18,2,13,13,15,17,2,30,19,29,4,19,11,4,8,13,30,29,24,2,23,5,8,4,5,3,9,2,15,26,13,13,1999.txt
30,29,1,10,10,19,1,7,6,8,25,19,16,5,5,3,3,4,23,1,22,26,29,3,27,10,9,15,15,1,27,5,3,29,18,15,5,22,18,14,19,26,26,27,6,11,2,20,4,10,2001.txt
0,0,0,0,0,0,13,0,0,16,0,11,17,16,19,17,13,8,0,8,8,8,8,23,25,18,14,17,0,20,9,4,16,30,6,4,4,6,0,0,5,15,20,13,11,20,5,3,2,2,2005.txt
0,0,0,0,0,0,13,0,0,16,0,11,17,16,19,17,13,8,0,8,8,8,8,23,25,18,0,0,0,24,11,4,16,30,6,4,4,6,21,5,8,15,20,13,11,19,10,0,18,17,2007.txt
0,0,0,0,0,0,13,0,0,16,0,11,17,16,19,17,13,8,0,8,8,8,8,23,25,18,0,0,0,24,9,26,16,30,6,4,4,6,0,0,5,15,20,4,4,3,5,3,2,2,2008.txt
30,9,1,28,5,13,26,7,6,24,4,23,24,23,29,19,8,20,19,19,16,30,27,15,5,8,8,1,26,8,19,24,25,22,21,11,30,3,7,30,12,10,10,11,19,10,18,24,17,24,2012.txt
30,29,1,28,18,9,3,7,6,11,25,30,7,5,11,19,10,20,9,27,10,10,4,1,12,29,30,5,13,5,25,16,20,23,12,12,29,4,9,8,16,29,14,26,15,12,21,15,21,9,2015.txt
0,0,0,0,0,0,13,0,0,16,0,11,17,16,19,17,13,8,0,8,8,8,8,23,25,18,0,0,0,24,22,26,30,0,6,4,4,6,0,0,23,22,20,24,30,3,12,11,23,19,2017.txt
0,0,0,0,0,0,13,0,0,16,0,11,17,16,19,17,13,8,0,8,8,8,8,23,25,18,0,0,0,24,22,26,30,0,6,4,4,6,0,0,23,22,20,24,30,3,23,29,30,24,2020.txt
0,0,0,0,0,0,13,0,0,16,0,11,17,16,19,17,13,8,0,8,8,8,8,23,25,18,0,0,0,24,22,26,30,0,6,4,4,6,0,0,23,22,20,24,30,3,5,3,2,2,2022.txt
0,0,0,0,0,0,13,0,0,16,0,2,17,16,19,17,13,8,0,8,8,8,8,23,25,18,0,0,0,24,9,4,8,30,6,4,4,6,21,4,7,15,20,13,9,19,9,4,20,17,2024.txt
0,0,0,0,0,0,13,0,0,16,0,11,17,16,19,17,13,8,0,8,8,8,8,23,25,18,0,0,0,24,22,26,30,0,6,4,4,6,0,0,23,22,20,24,30,3,5,3,2,2,2026.txt
0,0,0,0,0,0,13,0,0,16,0,11,17,16,19,8,11,8,0,8,8,8,8,23,25,18,0,0,0,24,22,30,30,0,6,4,4,6,0,0,23,22,4,24,30,4,10,6,0,0,2029.txt
0,0,0,0,0,0,13,0,0,16,0,2,17,16,19,17,13,20,0,19,8,8,8,23,25,18,0,0,0,24,4,5,3,8,6,4,4,6,25,22,4,15,20,4,4,22,11,26,13,13,2031.txt
0,0,0,0,0,0,13,0,0,16,0,11,17,16,19,17,13,8,0,8,8,8,8,23,25,18,0,0,0,24,22,4,30,0,6,4,4,6,0,0,23,22,20,24,30,20,5,3,2,2,2032.txt
0,0,0,0,0,0,13,0,0,16,0,11,17,16,19,17,13,8,0,8,8,8,8,23,25,18,0,0,0,24,22,26,30,0,6,4,4,6,0,0,23,22,20,24,30,5,12,11,23,19,2034.txt
0,0,0,0,0,0,13,0,0,16,0,11,17,16,19,17,13,8,0,8,8,8,8,23,25,18,0,0,0,24,22,30,30,0,6,4,4,6,0,0,23,22,20,24,30,3,5,3,2,2,2037.txt
0,0,0,0,0,0,13,0,0,16,0,2,17,16,19,17,13,8,0,8,8,8,8,23,25,18,0,0,0,24,9,4,16,30,6,4,4,6,21,24,5,15,20,4,4,19,11,20,7,14,2038.txt
0,0,0,0,0,0,13,0,0,16,0,11,17,16,19,17,13,20,0,12,8,8,8,23,25,18,14,17,0,20,3,7,22,7,6,4,4,6,21,5,14,15,20,13,9,22,11,27,5,11,2040.txt
0,0,0,0,0,0,13,0,0,16,0,11,17,16,19,17,13,1,0,1,8,8,8,23,25,18,0,0,0,24,4,8,25,8,6,4,4,6,0,0,14,15,20,13,9,29,11,27,5,11,2043.txt
0,0,1,10,4,19,1,7,1,17,25,30,16,5,5,3,3,4,16,1,22,26,4,30,28,6,7,25,15,28,1,1,9,1,6,12,5,18,8,9,8,15,20,13,9,9,30,20,30,30,2045.txt
0,0,0,0,0,0,13,0,0,16,0,2,17,16,19,17,13,8,0,8,8,8,8,23,25,18,0,0,0,24,9,26,8,30,6,4,4,6,21,23,5,15,20,13,9,3,13,27,23,13,2049.txt
0,0,0,0,0,0,13,0,0,16,0,11,17,16,19,17,13,8,0,8,8,8,8,23,25,18,0,0,0,24,9,26,8,30,6,4,4,6,0,0,5,15,20,5,13,3,5,3,2,2,2052.txt
0,0,0,0,0,0,13,0,0,16,4,11,17,16,19,17,13,20,24,12,8,8,8,23,25,1,1,20,30,12,6,10,21,29,6,4,4,17,26,14,14,15,20,13,9,1,26,21,30,24,2053.txt
0,0,17,4,8,5,22,27,16,28,2,11,11,12,17,30,2,8,18,8,13,14,16,17,18,30,19,29,0,19,9,26,16,13,25,23,17,2,21,23,5,15,20,6,9,3,5,3,2,2,2055.txt
0,0,0,0,0,0,13,0,0,16,0,11,17,16,19,17,13,8,0,8,8,8,8,23,25,18,0,0,0,24,9,4,16,30,6,4,4,6,21,23,22,15,20,13,9,19,5,3,2,2,2057.txt
0,0,0,0,0,0,13,0,0,16,8,11,17,16,19,17,13,8,6,8,8,8,8,23,25,6,7,10,15,10,22,4,30,0,6,4,4,18,8,9,23,22,20,24,30,19,23,11,30,24,2060.txt
0,0,0,0,0,0,13,0,0,16,0,11,17,16,19,17,13,8,0,8,8,8,8,23,25,18,0,0,0,24,9,4,6,13,6,4,4,6,0,0,6,15,20,13,10,19,5,3,2,2,2062.txt
0,0,17,4,8,5,22,27,26,28,11,11,11,12,26,26,29,8,18,8,12,14,16,17,18,30,18,19,0,21,9,4,16,30,29,23,23,25,21,5,5,15,20,4,4,19,5,3,2,2,2066.txt
0,0,17,4,8,5,22,27,21,20,26,11,11,28,25,30,2,20,24,12,13,14,16,17,20,10,9,25,7,28,4,5,3,8,30,25,25,13,14,21,5,15,20,3,9,1,11,20,22,11,2067.txt
0,0,0,0,0,0,13,0,0,16,0,11,17,16,19,17,13,8,0,8,8,8,8,23,25,18,0,0,0,24,9,26,6,30,6,4,4,6,0,0,5,15,20,13,9,5,13,16,10,13,2069.txt
0,0,0,0,0,0,13,0,0,16,0,11,17,16,19,17,13,8,0,8,8,8,8,23,25,18,0,0,0,24,11,26,16,30,6,4,4,6,0,0,5,15,20,13,9,3,5,3,2,2,2072.txt
0,0,0,0,0,0,13,0,0,16,0,11,17,16,19,17,13,8,0,8,8,8,8,23,25,18,0,0,0,24,9,26,16,30,6,4,4,6,0,0,5,15,20,4,4,3,5,3,2,2,2074.txt
0,0,0,0,0,0,13,0,0,16,0,11,17,16,19,17,13,10,0,16,8,8,8,0,0,18,14,17,0,20,22,2,30,0,6,4,4,6,0,0,23,22,25,24,30,19,18,14,17,29,2078.txt
0,0,0,0,0,0,13,0,0,16,0,11,17,16,19,17,13,8,0,8,8,8,8,23,25,18,0,0,0,24,9,26,16,30,6,4,4,6,0,0,7,15,20,13,12,3,5,3,2,2,2080.txt
0,0,0,0,0,0,13,0,0,16,0,11,17,16,19,17,13,8,0,8,8,8,8,23,25,18,0,0,0,24,9,26,16,30,6,4,4,6,0,0,8,15,20,13,9,3,14,20,5,11,2083.txt
0,0,0,0,0,0,13,0,0,16,0,11,17,16,19,17,13,8,0,8,8,8,8,23,25,18,0,0,0,24,22,26,30,0,6,4,4,6,0,0,23,22,20,24,30,3,5,3,2,2,2085.txt
0,0,0,0,0,0,13,0,0,16,0,11,17,16,19,17,13,8,0,8,8,8,8,21,23,18,0,0,0,24,22,4,30,0,6,4,4,6,0,0,23,22,20,24,30,19,12,16,10,13,2087.txt
0,0,0,0,0,0,13,0,0,16,0,11,17,16,19,17,13,8,0,8,8,8,8,23,25,18,0,0,0,24,22,26,30,0,6,4,4,6,0,0,23,22,20,24,30,3,5,3,2,2,2090.txt
0,0,0,0,0,0,13,0,0,16,0,11,17,16,19,17,13,8,0,8,8,8,8,23,25,18,0,0,0,24,9,26,16,30,6,4,4,6,0,0,5,16,20,13,9,3,5,3,2,2,2092.txt
30,9,1,10,4,4,4,7,6,7,22,23,24,5,4,10,17,12,23,19,16,30,18,30,5,10,9,1,13,15,30,20,21,24,20,12,30,3,7,14,12,7,10,11,18,22,30,18,30,30,2093.txt
0,0,1,28,4,19,17,7,6,7,22,14,27,5,5,23,1,4,6,26,16,30,18,26,10,10,9,1,13,14,15,16,29,18,5,12,8,8,12,29,23,22,20,24,30,7,22,13,25,27,2096.txt
0,0,0,0,0,0,13,0,0,16,0,11,17,16,19,17,13,8,0,8,8,8,8,19,15,18,0,0,0,24,11,4,16,30,6,4,4,6,0,0,6,15,20,13,12,19,5,3,2,2,2098.txt
28,9,27,28,28,19,17,7,29,6,30,26,27,5,6,4,5,11,11,6,1,1,1,4,7,23,8,1,13,13,15,25,4,18,17,15,11,30,7,28,1,26,1,30,6,25,30,9,28,27,2099.txt
12,11,17,4,8,5,22,2,26,28,2,11,11,12,22,30,2,21,28,25,13,13,15,25,20,30,19,19,24,19,9,30,16,5,30,25,25,25,23,23,8,4,2,3,9,3,10,6,0,0,2101.txt
0,0,0,0,0,0,13,0,0,16,0,11,17,16,19,17,13,8,0,8,8,8,8,23,25,18,0,0,0,24,9,26,16,30,6,4,4,6,0,0,14,15,20,13,9,3,5,3,2,2,2103.txt
0,0,0,0,0,0,13,0,0,16,0,11,17,16,19,17,13,8,0,8,8,8,8,23,25,0,0,0,0,24,11,4,8,13,19,4,4,9,0,0,8,15,20,13,9,19,11,30,22,9,2105.txt
0,0,0,0,0,0,13,0,0,16,0,11,17,16,19,17,13,8,0,8,8,8,8,23,25,18,0,0,0,24,9,26,6,30,6,4,4,6,0,0,5,15,20,13,9,3,11,27,23,19,2107.txt
0,0,0,0,0,0,13,0,0,16,0,11,17,16,19,17,13,8,0,8,8,8,8,23,25,18,0,0,0,24,9,4,16,30,6,4,4,6,21,23,5,15,20,13,12,19,5,3,2,2,2110.txt
0,0,0,0,0,0,13,0,0,16,0,2,17,16,19,17,13,8,0,8,8,8,8,23,25,18,14,17,0,20,9,4,8,30,6,4,4,6,22,24,14,15,20,13,9,19,5,3,2,2,2113.txt
0,0,0,0,0,0,13,0,0,16,0,11,17,16,19,17,13,8,0,8,8,8,8,23,25,18,0,0,0,24,22,4,30,0,6,4,4,6,0,0,23,22,20,24,30,19,5,3,2,2,2114.txt
12,11,17,4,8,7,24,30,22,22,2,11,2,14,24,28,30,21,17,25,13,13,15,16,2,16,19,18,4,19,11,30,2,6,25,29,2,11,25,4,8,4,16,6,9,3,15,21,7,14,2117.txt
0,0,0,0,0,0,13,0,0,16,0,11,17,16,19,17,13,8,0,8,8,8,8,23,25,18,0,0,0,24,22,26,30,0,6,4,4,6,0,0,23,22,20,24,30,3,5,3,2,2,2119.txt
0,0,0,0,0,0,13,0,0,16,0,11,17,16,19,17,13,8,0,8,8,8,8,23,25,18,0,0,0,24,9,26,16,30,6,4,4,6,0,0,5,15,20,4,4,3,5,3,2,2,2121.txt
30,18,1,10,22,19,17,3,28,6,25,24,22,27,8,9,20,11,9,26,21,25,13,9,28,11,10,5,13,5,20,25,3,27,17,5,12,17,28,8,30,20,28,26,6,12,21,16,21,9,2122.txt
