0,1,2,3,4,5,6,7,8,9,10,11,12,13,14,15,16,17,18,19,20,21,22,23,24,25,26,27,28,29,30,31,32,33,34,35,36,37,38,39,40,41,42,43,44,45,46,47,48,49,50,51,52,53,54,55,56,57,58,59,60,61,62,63,64,filename
0,0,24,0,7,0,0,18,0,25,18,21,18,25,18,18,18,21,16,16,15,14,14,14,11,16,19,24,0,3,17,0,0,0,0,2,1,1,1,13,4,4,10,10,19,14,9,3,3,3,3,0,5,5,5,2,5,5,5,8,14,4,27,6,4,2.txt
9,14,7,2,2,2,2,9,2,3,26,2,3,3,3,3,3,3,3,4,2,2,2,2,2,2,2,3,2,2,2,2,2,2,2,4,13,1,1,1,3,3,1,1,1,1,1,1,1,1,1,1,1,1,1,1,1,1,1,1,1,1,1,7,1,5.txt
0,0,24,0,7,0,0,18,0,25,18,21,18,25,18,18,12,20,16,16,15,14,14,14,11,14,19,24,17,3,17,29,7,7,0,2,6,0,0,0,4,4,10,10,19,14,9,3,3,3,3,0,3,3,3,0,14,15,14,25,18,4,27,4,4,9.txt
0,0,24,0,7,0,15,18,0,25,18,21,18,25,18,18,18,17,0,16,15,14,14,14,11,14,19,24,17,3,17,29,7,7,0,2,1,1,15,1,4,4,1,1,1,1,1,1,1,1,1,1,1,1,1,1,1,1,1,1,1,1,1,1,1,12.txt
0,0,24,0,7,0,0,18,0,25,18,21,18,25,18,18,18,17,16,16,15,14,14,14,11,14,19,24,17,3,17,29,7,7,0,2,1,1,1,0,4,4,21,26,26,14,9,3,3,3,3,0,3,3,3,0,14,15,14,25,14,4,27,6,4,14.txt
0,0,25,0,0,0,12,23,0,25,18,3,18,25,18,18,18,17,0,16,15,14,14,14,11,16,19,24,0,3,17,0,0,0,0,0,13,1,5,0,30,20,10,10,19,12,11,3,3,3,1,23,2,2,2,15,2,2,2,2,3,3,3,2,3,16.txt
0,0,24,0,7,0,0,18,0,25,18,21,18,25,18,18,18,17,27,16,15,14,14,14,11,14,19,24,17,3,17,29,7,7,0,2,1,1,1,1,4,4,1,1,1,1,1,1,1,1,1,1,1,1,1,1,1,1,1,1,1,1,1,11,1,17.txt
0,0,24,0,7,0,0,18,0,25,18,21,18,25,18,18,12,17,16,16,15,14,14,14,11,14,19,24,17,3,17,29,7,7,0,2,1,1,1,0,4,4,10,10,19,14,9,3,3,3,3,0,3,3,3,0,14,15,14,25,14,4,27,6,4,21.txt
0,0,24,0,7,0,0,18,0,25,18,21,18,25,18,18,18,17,0,16,15,14,14,14,11,14,19,24,17,3,17,29,7,7,0,2,1,1,1,1,4,4,1,1,1,1,1,1,1,1,1,1,1,1,1,1,1,1,1,1,1,1,1,1,1,23.txt
0,0,24,0,7,0,0,18,0,25,18,7,18,25,18,18,18,17,0,16,15,14,14,14,11,14,19,24,17,3,17,29,7,7,0,2,1,1,1,0,4,4,10,10,19,14,9,3,3,3,6,0,6,6,6,8,21,28,28,21,21,16,29,0,6,24.txt
0,0,24,0,7,0,0,18,0,25,18,21,18,25,18,18,12,20,16,3,15,14,14,14,11,14,19,5,17,8,17,29,7,7,0,2,6,0,0,13,4,4,6,6,6,17,6,22,6,6,3,0,3,3,3,0,14,15,14,25,14,4,27,4,4,26.txt
0,0,24,0,7,0,0,18,0,25,18,21,18,25,18,18,18,17,0,16,15,14,14,14,11,14,19,24,17,3,17,29,7,7,0,2,1,1,1,0,4,4,10,10,19,14,9,3,3,3,1,0,3,3,3,0,14,22,14,25,14,4,27,1,4,28.txt
0,0,24,0,7,0,0,18,0,0,0,0,0,0,0,0,0,0,16,0,0,16,0,17,18,14,0,5,17,3,0,29,7,7,0,2,6,0,0,0,0,0,10,10,19,14,9,3,3,3,3,0,3,3,3,0,14,15,14,25,14,4,27,6,4,30.txt
22,15,23,29,26,16,2,4,6,9,7,13,29,20,27,9,15,11,10,9,11,8,9,11,15,25,18,15,8,30,24,26,18,20,13,6,16,21,21,16,21,28,16,16,21,23,27,21,27,24,28,17,5,5,5,2,5,5,5,8,17,14,8,10,8,32.txt
0,0,24,0,7,0,0,18,0,25,18,7,18,25,18,18,22,24,27,16,15,14,14,14,11,14,19,7,17,3,17,29,7,7,0,2,9,0,0,22,30,20,10,10,19,14,9,3,3,3,5,10,5,5,5,25,0,18,19,22,17,14,8,18,8,34.txt
0,0,24,0,7,0,0,18,0,25,18,21,18,25,18,18,18,21,27,16,15,14,14,14,11,16,19,24,19,3,17,10,9,9,0,2,11,12,0,0,4,4,10,10,19,14,11,3,3,3,5,0,6,6,6,7,12,12,6,9,21,16,29,7,6,36.txt
0,0,24,0,7,0,0,18,0,25,18,21,18,25,18,18,18,17,0,16,15,14,14,14,11,14,19,24,17,3,17,29,7,7,0,2,1,1,1,1,4,4,1,1,1,1,1,1,1,1,1,1,1,1,1,1,1,1,1,1,1,1,1,1,1,40.txt
0,0,24,0,7,0,0,18,0,25,18,0,18,25,18,18,22,21,27,16,15,14,14,14,11,14,19,8,17,3,0,29,7,7,0,2,0,0,0,0,4,4,10,10,19,14,9,3,3,3,14,0,6,6,6,2,0,0,0,8,21,16,8,5,6,41.txt
0,0,24,0,7,0,0,18,0,25,18,21,18,25,18,18,18,17,0,3,15,14,14,14,11,14,19,24,17,8,17,29,7,7,0,2,1,1,1,1,4,4,1,1,1,1,1,1,1,1,1,1,1,1,1,1,1,1,1,1,1,1,1,1,1,49.txt
0,0,24,0,7,0,0,18,0,25,18,21,18,25,18,18,12,20,16,16,15,14,14,14,11,14,19,24,17,3,17,29,7,7,0,2,0,0,0,0,4,4,10,10,19,14,9,3,3,3,3,0,3,3,3,8,14,15,14,25,11,26,8,25,23,53.txt
0,0,24,0,7,0,0,18,0,25,18,21,18,25,18,18,18,21,27,16,15,14,14,14,11,14,19,24,17,3,17,29,7,7,0,2,1,1,1,13,4,4,10,10,19,14,9,3,3,3,14,0,5,5,5,8,19,10,11,14,21,16,8,6,6,55.txt
0,0,24,0,7,0,0,18,0,25,18,21,18,25,18,18,12,17,16,16,15,14,14,14,11,14,19,24,17,3,17,29,7,7,0,2,1,1,1,0,4,4,10,10,19,14,9,3,3,3,3,0,3,3,3,0,14,15,14,25,14,4,27,1,4,57.txt
0,0,24,0,7,0,0,18,0,25,18,21,18,25,18,18,18,17,0,16,15,14,14,14,11,14,19,24,17,3,17,29,7,7,0,2,1,1,1,1,4,4,1,1,1,1,1,1,1,1,1,1,1,1,1,1,1,1,1,1,1,1,1,1,1,60.txt
0,0,3,5,0,0,0,18,0,25,18,21,18,25,18,18,12,20,16,16,1,1,1,1,1,1,1,5,1,1,6,5,5,5,7,1,6,7,9,0,10,8,12,13,10,2,2,2,2,2,0,0,3,3,3,2,14,15,14,25,21,16,8,4,6,61.txt
0,0,24,0,7,0,0,18,0,25,18,21,18,25,18,18,18,17,0,16,15,14,14,14,11,14,19,24,17,3,17,29,7,7,0,2,13,1,1,1,28,19,1,1,1,1,1,1,1,1,10,1,1,1,1,1,1,1,1,1,1,1,1,1,1,63.txt
0,0,3,16,7,0,0,18,0,25,18,21,18,25,18,18,12,20,16,16,1,1,1,1,1,10,18,5,14,11,1,1,1,1,1,1,6,2,16,0,10,8,16,16,10,15,26,7,17,8,3,0,3,3,3,0,14,15,14,25,14,4,27,4,4,65.txt
9,2,1,2,2,2,13,9,9,10,26,1,26,1,1,3,3,3,9,21,4,6,6,4,15,10,18,10,23,6,11,14,20,15,30,1,1,1,1,7,10,8,16,16,10,15,26,2,17,2,3,0,3,3,3,0,14,15,14,25,14,4,27,6,4,68.txt
0,0,24,0,7,0,0,18,0,25,18,21,18,25,18,18,12,20,16,16,15,14,14,14,11,14,19,5,17,3,17,30,7,7,0,2,6,12,0,13,4,4,10,10,19,3,3,3,3,3,3,0,3,3,3,0,14,15,14,25,14,4,27,6,4,71.txt
0,0,24,0,7,10,24,12,4,6,13,19,16,17,23,6,5,4,5,16,15,14,14,14,11,14,19,24,17,3,5,29,7,7,0,2,1,1,5,1,4,4,1,1,1,1,1,1,1,1,5,1,1,1,1,1,1,1,1,1,1,1,1,29,1,72.txt
0,0,24,0,7,0,0,18,0,25,18,21,18,25,18,18,18,17,0,16,15,14,14,14,11,14,19,24,17,15,17,29,7,7,0,2,1,1,5,1,4,4,1,1,1,1,1,1,1,1,1,1,1,1,1,1,1,1,1,1,1,1,1,1,1,76.txt
0,0,25,0,0,0,0,18,0,25,18,21,18,25,18,18,12,20,16,16,15,14,14,14,11,14,19,5,17,3,17,8,7,7,0,0,6,0,0,4,30,18,10,10,19,14,9,3,3,3,14,14,3,3,3,2,3,15,3,3,17,14,10,4,8,78.txt
0,0,24,0,7,0,0,18,0,25,18,21,18,25,18,18,23,17,27,16,15,14,14,14,11,16,19,24,18,3,17,9,8,30,0,2,11,12,0,0,4,4,10,10,19,14,9,3,3,3,3,0,3,3,3,0,14,15,14,25,14,4,27,6,4,81.txt
0,0,24,0,7,0,0,18,0,25,18,21,18,0,0,18,18,20,16,16,15,14,14,14,11,14,19,24,17,3,17,29,7,7,0,2,6,0,0,0,4,4,21,26,26,14,9,3,3,3,3,0,3,3,3,0,14,15,14,25,14,4,27,6,4,84.txt
0,0,24,0,7,0,0,18,0,25,18,21,18,25,18,18,18,17,0,16,15,14,14,14,11,14,19,24,17,3,17,29,7,7,0,2,1,1,1,1,4,4,1,1,1,1,1,1,1,1,1,1,1,1,1,1,1,1,1,1,1,1,1,1,1,86.txt
0,0,24,0,7,0,0,18,0,25,18,21,18,25,18,18,18,20,16,16,15,14,14,14,11,14,19,24,17,3,17,29,7,7,0,2,1,1,1,13,4,4,10,10,19,14,9,3,3,3,3,0,6,6,6,0,0,0,0,0,14,4,27,6,4,89.txt
0,0,24,0,7,0,0,18,0,25,18,21,18,25,18,18,18,17,0,16,15,14,14,14,11,16,19,24,0,3,17,0,0,0,0,2,1,1,1,1,4,4,1,1,1,1,1,1,1,1,1,1,1,1,1,1,1,1,1,1,1,1,1,1,1,90.txt
0,0,24,0,7,0,0,18,0,25,18,21,18,25,18,18,18,17,0,16,15,14,14,14,11,14,19,24,17,3,17,29,7,7,0,2,1,1,1,1,4,4,1,1,1,1,1,1,1,1,1,1,1,1,1,1,1,1,1,1,1,1,1,1,1,92.txt
0,0,25,0,0,0,0,24,16,25,18,21,18,25,18,18,12,20,16,16,15,14,14,14,11,14,19,1,17,3,17,29,7,7,0,0,6,0,0,8,30,20,10,10,19,14,9,3,3,3,14,7,3,3,3,8,14,15,14,25,11,9,12,4,9,95.txt
0,0,24,0,7,0,0,18,0,25,18,21,18,25,18,18,22,21,28,16,15,14,14,14,11,14,19,8,17,3,17,29,7,7,0,2,25,12,0,0,23,15,10,10,19,14,9,3,3,3,5,30,3,3,3,2,14,15,14,25,17,14,29,7,6,97.txt
0,0,24,0,7,0,0,18,0,25,18,21,18,25,18,18,18,17,27,16,15,14,14,14,11,14,19,24,17,3,17,29,7,7,0,2,1,1,1,0,4,4,10,10,19,14,9,3,3,3,14,0,5,5,5,2,0,0,0,0,21,16,8,6,6,98.txt
0,0,24,0,7,0,0,18,0,25,18,21,18,25,18,18,18,17,0,16,15,14,14,14,11,14,19,24,17,3,17,29,7,7,0,2,1,1,1,1,4,4,1,1,1,1,1,1,1,1,3,1,1,1,1,1,1,1,1,1,1,1,1,1,1,100.txt
0,0,24,0,7,0,0,18,0,25,18,21,18,25,18,18,12,20,16,16,15,14,14,14,11,14,19,5,17,3,17,29,7,7,0,2,6,11,0,0,4,4,10,10,19,14,9,3,3,3,3,0,3,3,3,0,14,15,14,25,14,4,27,6,4,102.txt
0,0,24,0,7,0,0,18,0,25,18,21,18,25,18,18,12,20,16,16,15,14,14,14,11,14,19,24,17,3,17,29,7,7,0,2,1,1,1,0,4,4,10,10,19,14,9,3,3,3,3,0,3,3,3,0,14,15,14,25,14,4,27,6,4,105.txt
0,0,24,0,7,0,0,18,0,25,18,21,18,25,18,18,18,17,0,3,15,14,14,14,11,14,19,24,17,8,17,29,7,7,0,2,1,1,1,1,4,4,1,1,1,1,1,1,1,1,3,1,1,1,1,1,1,1,1,1,1,1,1,1,1,108.txt
0,0,24,0,7,0,0,18,0,25,18,21,18,25,18,18,18,17,0,16,15,14,14,14,11,14,19,24,17,3,17,29,7,7,0,2,1,1,5,1,4,4,1,1,1,1,1,1,1,1,1,1,1,1,1,1,1,1,1,1,1,1,1,2,1,110.txt
0,0,24,0,7,0,0,18,0,25,18,21,18,25,18,18,18,17,0,16,15,14,14,14,11,14,19,24,17,3,17,29,7,7,0,2,1,1,1,1,4,4,1,1,1,1,1,1,1,1,3,1,1,1,1,1,1,1,1,1,1,1,1,1,1,112.txt
0,0,24,0,7,0,0,18,0,25,18,21,18,25,18,18,12,20,16,16,15,14,14,14,11,14,19,5,17,3,17,29,7,7,0,2,6,0,0,0,4,4,10,10,19,14,9,3,3,3,3,0,3,3,3,0,14,15,14,25,14,4,0,6,4,114.txt
0,0,24,0,7,0,0,18,0,25,18,23,18,25,18,18,12,20,16,16,15,14,14,14,11,14,19,5,17,3,16,29,7,7,0,2,6,0,0,0,4,4,10,10,19,14,9,3,3,3,3,0,3,3,3,2,14,15,14,25,11,2,2,5,2,116.txt
0,0,24,0,7,0,0,18,0,25,18,21,18,25,18,18,18,17,16,16,15,14,14,14,11,14,19,24,17,3,17,29,7,7,0,2,1,1,1,1,4,4,1,1,1,1,1,1,1,1,3,1,1,1,1,1,1,1,1,1,1,1,1,1,1,118.txt
9,2,1,16,2,2,13,1,9,7,26,10,26,1,7,29,7,19,9,21,9,22,30,7,16,10,18,15,8,6,26,26,6,26,11,1,1,1,10,7,11,8,29,27,11,23,23,29,20,9,3,11,3,3,3,5,14,15,14,25,14,4,27,6,4,121.txt
0,0,24,0,7,0,0,18,0,25,18,21,18,25,18,18,12,20,16,16,15,14,14,14,11,14,19,5,17,3,17,29,7,7,0,2,6,12,0,0,4,4,10,10,19,14,9,3,3,3,3,0,3,3,3,0,14,15,14,25,14,4,27,4,4,123.txt
0,0,24,0,7,0,0,18,0,25,18,21,18,25,18,18,12,21,27,16,15,14,14,14,11,16,19,8,19,3,17,10,9,9,0,2,0,11,0,0,4,4,10,10,19,14,9,3,3,3,3,0,6,6,6,8,5,5,5,8,21,16,8,6,6,124.txt
0,0,24,0,7,0,0,18,0,25,18,21,18,0,0,18,18,17,0,16,15,14,14,14,11,14,19,24,17,3,17,29,7,7,0,2,1,1,1,1,4,4,1,1,1,1,1,1,1,1,1,1,1,1,1,1,1,1,1,1,1,1,1,1,1,126.txt
0,0,24,0,7,0,0,18,0,25,18,21,18,25,18,18,18,17,29,16,15,14,14,14,11,16,19,24,18,3,17,9,8,8,0,2,1,1,1,1,4,4,1,1,1,1,1,1,1,1,3,1,1,1,1,1,1,1,1,1,1,1,1,0,1,128.txt
0,0,24,0,7,0,0,18,0,25,18,21,18,25,18,18,18,17,0,16,15,14,14,14,11,14,19,24,17,3,17,29,7,7,0,2,1,1,1,1,4,4,1,1,1,1,1,1,1,1,1,1,1,1,1,1,1,1,1,1,1,1,1,1,1,130.txt
0,0,24,0,7,0,15,18,0,25,18,21,18,25,18,18,18,17,0,16,15,14,14,14,11,14,19,24,17,3,27,29,7,7,0,2,1,1,1,1,4,4,1,1,1,1,1,1,1,1,3,1,1,1,1,1,1,1,1,1,1,1,1,1,1,132.txt
0,0,24,0,7,0,0,18,0,25,18,0,18,0,0,18,18,17,0,16,15,14,14,14,11,14,19,24,17,3,0,29,7,7,0,2,1,1,1,1,4,4,1,1,1,1,1,1,1,1,1,1,1,1,1,1,1,1,1,1,1,1,1,1,1,135.txt
0,0,25,0,0,0,0,18,0,25,18,21,18,25,18,18,18,17,0,16,15,14,14,14,11,14,19,24,17,3,17,30,7,7,0,0,13,1,5,5,30,18,6,6,6,12,11,3,3,3,1,25,2,2,2,3,2,2,2,2,3,3,3,2,3,137.txt
0,0,24,0,7,0,0,18,0,25,18,21,18,25,18,18,18,17,0,16,15,14,14,14,11,14,19,24,17,3,17,29,7,7,0,2,1,1,1,1,4,4,1,1,1,1,1,1,1,1,1,1,1,1,1,1,1,1,1,1,1,1,1,1,1,141.txt
0,0,24,0,7,0,0,19,0,25,18,21,18,25,18,18,12,17,16,16,15,14,14,14,11,14,19,24,17,3,17,29,7,7,0,2,1,1,1,24,4,4,18,3,3,14,9,15,13,16,3,0,3,3,3,0,14,15,14,25,14,4,27,1,4,144.txt
0,0,24,0,7,0,0,18,0,25,18,21,18,25,18,18,18,17,27,16,15,14,14,14,11,14,19,24,17,3,17,29,7,7,0,2,1,1,1,7,4,4,10,10,19,14,9,3,3,3,3,0,6,6,6,8,27,30,30,21,14,4,27,6,4,145.txt
0,0,24,0,7,0,0,18,0,25,18,21,18,25,18,18,18,17,0,16,15,14,14,14,11,14,19,24,17,3,17,30,7,7,0,2,1,1,1,1,4,4,1,1,1,1,1,1,1,1,1,1,1,1,1,1,1,1,1,1,1,1,1,1,1,147.txt
0,0,24,0,7,0,0,18,0,25,18,21,18,25,18,18,12,17,16,16,15,14,14,14,11,14,19,24,17,3,17,29,7,7,0,2,1,1,1,0,4,4,10,10,19,14,9,3,3,3,3,0,3,3,3,0,14,15,14,25,14,4,27,6,4,149.txt
0,0,24,0,7,0,0,18,0,25,18,21,18,25,18,18,18,17,0,16,15,14,14,14,11,14,19,24,17,3,17,29,7,7,0,2,1,1,1,1,4,4,1,1,1,1,1,1,1,1,1,1,1,1,1,1,1,1,1,1,1,1,1,1,1,151.txt
0,0,24,0,7,0,0,18,0,25,18,21,18,25,18,18,18,17,0,16,15,14,14,14,11,14,19,24,17,3,17,29,7,7,0,2,1,1,1,1,4,4,1,1,1,1,1,1,1,1,1,1,1,1,1,1,1,1,1,1,1,1,1,1,1,154.txt
0,0,24,0,7,0,0,18,0,25,18,21,18,25,18,18,18,17,16,3,15,14,14,14,11,14,19,24,17,8,3,30,7,7,0,2,1,1,1,13,4,4,6,6,6,6,6,6,6,6,3,3,3,3,3,0,14,15,14,25,14,4,27,21,4,156.txt
0,0,24,0,7,0,0,18,0,25,18,21,18,25,18,18,12,20,16,16,15,14,14,14,11,14,19,5,17,3,17,29,7,7,0,2,6,0,0,0,4,4,10,10,19,14,9,3,3,3,3,0,3,3,3,0,14,15,14,25,14,4,27,4,4,158.txt
0,0,24,0,7,0,0,18,0,25,18,21,18,25,18,18,18,21,28,16,15,14,14,14,11,16,19,24,19,3,17,10,9,9,0,2,1,1,5,0,4,4,10,10,19,14,11,3,3,3,1,23,2,2,2,3,2,2,2,2,3,3,3,25,3,160.txt
0,0,24,0,7,0,0,18,0,25,18,0,18,25,18,18,18,17,0,16,15,14,14,14,11,16,19,24,0,3,0,0,0,0,0,2,1,1,1,0,4,4,10,10,19,14,9,15,13,16,3,0,3,3,3,2,14,15,14,25,14,4,27,0,4,161.txt
0,0,25,0,0,0,0,18,0,25,18,21,18,25,18,18,12,20,16,16,15,14,14,14,11,14,19,5,17,3,17,29,7,7,0,0,6,0,0,0,30,20,10,10,19,14,9,3,3,3,3,0,3,3,3,0,14,15,14,25,14,4,27,4,4,163.txt
0,0,24,0,7,0,0,18,0,25,18,21,18,25,18,18,18,17,0,16,15,14,14,14,11,14,19,24,17,8,17,29,7,7,0,2,1,1,1,1,4,4,1,1,1,1,1,1,1,1,3,1,1,1,1,1,1,1,1,1,1,1,1,1,1,165.txt
0,0,1,2,7,0,0,18,0,25,18,21,18,25,18,18,12,20,16,3,4,4,4,4,4,1,1,5,1,1,6,5,5,16,7,1,6,2,16,4,10,1,12,13,10,8,2,2,2,2,3,10,3,3,3,18,14,15,14,25,14,4,27,3,4,167.txt
0,0,24,0,7,0,0,18,0,25,18,21,18,25,18,18,18,17,0,16,15,14,14,14,11,14,19,24,17,3,17,29,7,7,0,2,1,1,1,1,4,4,1,1,1,1,1,1,1,1,1,1,1,1,1,1,1,1,1,1,1,1,1,1,1,169.txt
0,0,24,0,7,0,0,18,0,25,18,21,18,25,18,18,18,17,0,16,15,14,14,14,11,14,19,24,17,3,17,29,7,7,0,2,1,1,1,1,4,4,1,1,1,1,1,1,1,1,1,1,1,1,1,1,1,1,1,1,1,1,1,1,1,171.txt
0,0,24,0,7,0,0,18,0,25,18,21,18,25,18,18,12,20,16,16,15,14,14,14,11,14,19,5,17,3,17,30,7,7,0,2,6,0,0,0,4,4,10,10,19,14,9,3,3,3,3,0,3,3,3,0,14,15,14,25,14,4,27,6,4,173.txt
0,0,24,0,7,0,0,18,0,25,18,21,18,25,18,18,18,17,0,16,15,14,14,14,11,14,19,24,17,3,17,29,7,7,0,2,1,1,1,1,4,4,1,1,1,1,1,1,1,1,1,1,1,1,1,1,1,1,1,1,1,1,1,1,1,175.txt
0,0,24,0,7,0,0,18,0,25,18,21,18,25,18,18,18,17,0,16,15,14,14,14,11,14,19,24,17,3,17,29,7,7,0,2,1,1,1,1,4,4,1,1,1,1,1,1,1,1,3,1,1,1,1,1,1,1,1,1,1,1,1,0,1,177.txt
0,0,24,0,7,0,0,18,0,25,18,21,18,25,18,18,18,17,0,16,15,14,14,14,11,14,19,24,17,3,17,29,7,7,0,2,1,1,1,1,4,4,1,1,1,1,1,1,1,1,1,1,1,1,1,1,1,1,1,1,1,1,1,1,1,179.txt
0,0,24,0,7,0,0,18,0,25,18,21,18,25,18,18,18,17,0,16,15,14,14,14,11,14,19,24,17,3,17,29,7,7,0,2,1,1,5,1,4,4,1,1,1,1,1,1,1,1,1,1,1,1,1,1,1,1,1,1,1,1,1,1,1,182.txt
0,0,24,0,7,0,0,18,0,25,18,21,18,25,18,18,18,17,0,16,15,14,14,14,11,14,19,24,17,3,17,29,7,7,0,2,1,1,1,1,4,4,1,1,1,1,1,1,1,1,1,1,1,1,1,1,1,1,1,1,1,1,1,1,1,184.txt
0,0,24,0,7,0,0,18,0,25,18,21,18,25,18,18,12,17,16,16,15,14,14,14,11,14,19,24,17,15,17,29,7,7,0,2,1,1,1,1,4,4,1,1,1,1,1,1,1,1,3,1,1,1,1,1,1,1,1,1,1,1,1,1,1,188.txt
0,0,24,0,7,0,0,18,0,25,18,21,18,25,18,18,12,21,27,16,15,14,14,14,11,16,19,8,0,3,17,0,0,0,0,2,11,0,0,0,4,4,10,10,19,14,9,3,3,3,14,0,7,7,7,8,27,27,29,20,21,16,8,18,6,189.txt
0,0,24,0,7,0,0,18,0,25,18,21,18,25,18,18,18,17,16,16,15,14,14,14,11,14,19,24,17,3,17,30,7,7,0,2,1,1,1,4,4,4,10,10,19,14,9,3,3,3,3,10,3,3,3,4,14,15,14,25,14,4,27,1,4,191.txt
23,2,3,29,30,24,2,4,6,9,30,28,22,6,10,13,26,28,15,24,8,6,6,11,15,13,18,26,14,21,29,18,16,29,15,30,6,30,24,8,12,17,12,13,12,15,26,2,17,2,5,0,6,6,6,8,27,28,30,30,21,16,29,4,6,194.txt
0,0,24,0,7,0,0,18,0,25,18,21,18,25,18,18,18,17,0,16,15,14,14,14,11,14,19,24,17,3,17,29,7,7,0,2,13,1,5,1,30,20,1,1,1,1,1,1,1,1,1,1,1,1,1,1,1,1,1,1,1,1,1,1,1,197.txt
0,0,24,0,7,0,0,18,0,25,18,21,18,25,18,18,18,17,0,16,15,14,14,14,11,14,19,24,17,3,17,29,7,7,0,2,1,1,1,1,4,4,1,1,1,1,1,1,1,1,1,1,1,1,1,1,1,1,1,1,1,1,1,1,1,199.txt
0,0,24,0,7,0,0,18,0,25,18,21,18,25,18,18,22,21,27,16,15,14,14,14,11,16,19,8,0,3,17,0,0,0,0,2,14,0,0,14,30,20,10,10,19,14,9,3,3,3,16,11,26,28,19,9,27,29,26,15,11,25,10,25,26,203.txt
0,0,24,0,7,0,0,18,0,25,18,21,18,25,18,18,18,17,0,16,15,14,14,14,11,14,19,24,17,3,17,29,7,7,0,2,1,1,5,1,4,4,1,1,1,1,1,1,1,1,1,1,1,1,1,1,1,1,1,1,1,1,1,0,1,204.txt
0,0,25,0,0,0,0,18,0,25,18,21,18,25,18,18,22,20,16,16,15,14,14,14,11,14,19,5,17,3,17,29,7,7,0,0,6,0,0,0,30,20,10,10,19,14,9,3,3,3,14,30,5,5,5,2,0,0,0,6,21,16,8,4,6,209.txt
0,0,24,0,7,0,0,18,0,25,18,0,18,25,18,18,12,20,16,16,15,14,14,14,11,16,19,24,0,3,0,0,0,0,0,2,1,1,1,0,4,4,10,10,19,14,9,15,13,16,3,0,3,3,3,0,14,15,14,25,14,4,27,1,4,210.txt
0,0,24,0,7,0,15,18,0,25,18,21,18,25,18,18,18,17,0,16,15,14,14,14,11,14,19,24,17,15,3,29,7,7,0,2,1,1,1,1,4,4,1,1,1,1,1,1,1,1,1,1,1,1,1,1,1,1,1,1,1,1,1,1,1,212.txt
0,0,24,0,7,0,0,18,0,25,18,21,18,25,18,18,12,24,16,16,15,14,14,14,11,14,19,22,17,3,17,29,7,7,0,2,0,0,0,0,4,4,10,10,19,14,9,3,3,3,3,0,3,3,3,0,14,15,14,25,14,4,27,6,4,214.txt
9,2,1,16,2,25,16,1,2,3,26,2,3,3,3,25,26,30,3,4,2,2,2,2,2,2,2,3,2,2,2,2,2,2,2,1,22,27,5,11,3,8,15,15,9,30,18,29,27,9,19,30,6,6,6,17,30,11,12,21,20,17,29,8,13,217.txt
0,0,25,0,0,0,0,18,0,25,18,21,18,25,18,18,18,17,0,16,15,14,14,14,11,14,19,24,17,3,17,29,7,7,0,24,1,1,5,0,4,4,10,10,19,14,11,3,3,3,1,23,2,2,2,0,2,2,2,2,14,15,0,2,16,219.txt
0,0,24,0,7,0,0,18,0,25,18,21,18,25,18,18,18,17,0,16,15,14,14,14,11,14,19,24,17,15,17,29,7,7,0,2,1,1,1,1,4,4,1,1,1,1,1,1,1,1,1,1,1,1,1,1,1,1,1,1,1,1,1,2,1,220.txt
0,0,24,0,7,0,0,18,0,25,18,21,18,25,18,18,18,17,0,16,15,14,14,14,11,14,19,24,17,3,17,29,7,7,0,2,1,1,1,1,4,4,1,1,1,1,1,1,1,1,1,1,1,1,1,1,1,1,1,1,1,1,1,1,1,222.txt
0,0,24,0,7,0,0,18,0,25,18,21,18,25,18,18,18,17,0,16,15,14,14,14,11,14,19,24,17,3,17,29,7,7,0,2,1,1,5,1,4,4,1,1,1,1,1,1,1,1,1,1,1,1,1,1,1,1,1,1,1,1,1,2,1,225.txt
0,0,24,0,7,0,0,18,0,25,18,21,18,25,18,18,18,17,16,16,15,14,14,14,11,14,19,24,17,3,17,29,7,7,0,2,1,1,1,0,4,4,10,10,19,14,9,3,3,3,3,0,3,3,3,0,14,15,14,25,14,4,27,6,4,227.txt
0,0,24,0,7,0,0,18,0,25,18,21,18,25,18,18,18,17,0,16,15,14,14,14,11,14,19,24,17,3,17,29,7,7,0,2,1,1,1,1,4,4,1,1,1,1,1,1,1,1,1,1,1,1,1,1,1,1,1,1,1,1,1,1,1,229.txt
0,0,24,0,7,0,0,18,0,25,18,0,18,25,18,18,18,17,0,16,15,14,14,14,11,16,19,24,0,3,0,0,0,0,0,2,1,1,5,1,4,4,1,1,1,1,1,1,1,1,1,1,1,1,1,1,1,1,1,1,1,1,1,1,1,231.txt
0,0,1,5,7,0,0,18,0,25,18,21,18,25,18,18,12,20,16,16,1,1,1,1,1,1,1,5,1,1,6,5,5,5,7,1,6,30,24,7,10,8,29,2,10,2,2,2,2,2,3,0,3,3,3,0,14,15,14,25,14,4,27,6,4,236.txt
0,0,24,0,7,0,0,18,0,25,18,21,18,25,18,18,12,21,16,16,15,14,14,14,11,14,19,8,17,3,17,30,7,7,0,2,0,11,0,0,4,4,10,10,19,3,3,3,3,3,3,0,6,6,6,0,5,5,5,8,14,4,27,6,4,241.txt
0,0,24,0,7,0,0,18,0,25,18,21,18,25,18,18,18,17,0,16,15,14,14,14,11,14,19,24,17,3,17,29,7,7,0,2,1,1,5,1,4,4,1,1,1,1,1,1,1,1,1,1,1,1,1,1,1,1,1,1,1,1,1,2,1,242.txt
0,0,24,0,7,0,0,18,0,25,18,21,18,25,18,18,18,17,0,16,15,14,14,14,11,14,19,24,17,3,17,29,7,7,0,2,1,1,1,1,4,4,1,1,1,1,1,1,1,1,3,1,1,1,1,1,1,1,1,1,1,1,1,1,1,245.txt
0,0,24,0,7,0,0,18,0,25,18,0,18,25,18,18,18,17,16,16,15,14,14,14,11,14,19,2,17,3,0,29,7,7,0,2,1,1,1,0,4,4,3,3,3,14,9,3,3,3,3,0,3,3,3,0,14,15,14,25,14,4,27,6,4,247.txt
0,0,24,0,7,0,0,18,0,25,18,21,18,25,18,18,18,17,0,16,15,14,14,14,11,16,19,24,0,3,17,0,0,0,0,2,1,1,7,3,4,4,10,10,19,14,11,3,3,3,5,30,6,6,6,2,28,17,6,13,20,17,8,18,17,249.txt
0,0,24,0,7,0,0,18,0,25,18,21,18,25,18,18,18,17,0,16,15,14,14,14,11,14,19,24,17,3,17,30,7,7,0,11,1,1,1,1,4,4,1,1,1,1,1,1,1,1,12,1,1,1,1,1,1,1,1,1,1,1,1,1,1,250.txt
0,0,24,0,7,0,0,18,0,25,18,21,18,25,18,18,18,17,0,16,15,14,14,14,11,14,19,24,17,3,17,29,7,7,0,2,1,1,1,1,4,4,1,1,1,1,1,1,1,1,3,1,1,1,1,1,1,1,1,1,1,1,1,1,1,252.txt
0,2,1,2,2,0,0,9,9,25,18,21,18,25,18,18,18,17,16,16,8,4,4,11,4,1,1,1,1,1,6,5,5,5,7,1,1,1,1,7,16,8,23,2,16,2,2,2,2,2,3,0,3,3,3,0,14,15,14,25,14,4,27,6,4,256.txt
0,0,24,0,7,0,0,18,0,25,18,21,18,25,18,18,18,17,16,16,15,14,14,14,11,14,19,24,17,3,17,29,7,7,0,2,1,1,1,1,4,4,1,1,1,1,1,1,1,1,3,1,1,1,1,1,1,1,1,1,1,1,1,6,1,258.txt
0,0,24,0,7,0,0,18,0,0,0,21,0,0,0,0,0,0,0,0,0,16,0,17,18,14,0,24,17,3,17,29,7,7,0,2,1,1,1,1,0,0,1,1,1,1,1,1,1,1,3,1,1,1,1,1,1,1,1,1,1,1,1,1,1,260.txt
0,0,24,0,7,0,0,18,0,25,18,21,18,25,18,18,12,17,27,16,15,14,14,14,11,16,19,24,0,3,17,0,0,0,0,2,1,1,1,0,4,4,3,3,3,14,9,3,3,3,3,0,3,3,3,0,14,15,14,25,14,4,27,0,4,261.txt
0,0,24,0,7,0,0,18,0,25,18,21,18,25,18,18,18,17,0,16,15,14,14,14,11,14,19,24,17,3,17,29,7,7,0,2,1,1,1,1,4,4,1,1,1,1,1,1,1,1,1,1,1,1,1,1,1,1,1,1,1,1,1,2,1,264.txt
0,0,24,0,7,0,0,18,0,25,18,21,18,25,18,18,18,17,0,3,15,14,14,14,11,14,19,24,17,8,17,29,7,7,0,2,1,1,5,1,4,4,1,1,1,1,1,1,1,1,1,1,1,1,1,1,1,1,1,1,1,1,1,1,1,269.txt
0,0,24,0,7,0,0,18,0,25,18,21,18,25,18,18,18,17,0,16,15,14,14,14,11,14,19,24,17,3,17,29,7,7,0,2,1,1,1,1,4,4,1,1,1,1,1,1,1,1,3,1,1,1,1,1,1,1,1,1,1,1,1,1,1,272.txt
0,0,24,0,7,0,0,18,0,25,18,21,18,25,18,18,18,17,0,16,15,14,14,14,11,14,19,24,17,3,17,29,7,7,0,2,1,1,1,1,4,4,1,1,1,1,1,1,1,1,1,1,1,1,1,1,1,1,1,1,1,1,1,1,1,274.txt
0,0,25,0,0,0,0,18,0,25,18,0,18,25,18,18,22,21,18,16,15,14,14,14,11,14,19,8,17,3,0,8,7,7,0,0,0,0,0,0,30,18,3,3,19,3,3,3,3,3,14,0,0,0,0,29,12,12,8,10,11,2,2,25,2,276.txt
0,0,24,0,7,0,0,18,0,25,18,0,18,25,18,18,18,17,0,16,15,14,14,14,11,14,19,2,17,3,0,29,7,7,0,2,1,1,5,1,4,4,1,1,1,1,1,1,1,1,1,1,1,1,1,1,1,1,1,1,1,1,1,2,1,280.txt
0,0,24,0,7,0,15,18,0,25,18,21,18,25,18,18,18,17,0,16,15,14,14,14,11,16,19,24,18,3,5,9,8,30,0,2,13,1,5,1,30,20,1,1,1,1,1,1,1,1,1,1,1,1,1,1,1,1,1,1,1,1,1,1,1,282.txt
0,0,24,0,7,0,0,18,0,25,18,21,18,25,18,18,12,17,16,16,15,14,14,14,11,16,19,5,30,3,17,24,8,8,0,2,24,0,0,0,30,20,10,10,19,14,9,3,3,3,3,17,6,6,6,0,5,5,5,8,14,4,27,16,4,283.txt
0,0,24,0,7,0,0,18,0,25,18,21,18,25,18,18,18,17,16,16,15,14,14,14,11,14,19,24,17,3,17,29,7,7,0,2,1,1,1,1,4,4,1,1,1,1,1,1,1,1,3,1,1,1,1,1,1,1,1,1,1,1,1,1,1,284.txt
0,0,24,0,7,0,0,18,0,25,18,21,18,25,18,18,12,17,16,16,15,14,14,14,11,14,19,5,17,3,17,29,7,7,0,2,6,0,0,0,4,4,10,10,19,14,9,3,3,3,3,0,3,3,3,0,14,15,14,25,14,4,27,6,4,286.txt
0,0,24,0,7,0,0,18,0,25,18,21,18,25,18,18,22,21,27,16,15,14,14,14,11,14,19,8,17,3,17,29,7,7,0,2,0,0,0,0,30,20,10,10,19,14,9,3,3,3,6,0,5,5,5,8,0,0,0,22,21,16,8,5,6,288.txt
0,0,24,0,7,0,0,18,0,25,18,21,18,25,18,18,12,20,16,16,15,14,14,14,11,14,19,5,17,3,17,29,7,7,0,2,6,0,0,0,4,4,10,10,19,14,9,3,3,3,3,0,3,3,3,0,14,15,14,25,14,4,27,4,4,290.txt
0,0,24,0,7,0,0,18,0,25,18,21,18,25,18,18,18,17,0,16,15,14,14,14,11,16,19,24,0,3,17,0,0,0,0,2,1,1,7,1,4,4,1,1,1,1,1,1,1,1,1,1,1,1,1,1,1,1,1,1,1,1,1,6,1,293.txt
0,0,25,0,0,0,0,18,0,25,18,0,18,25,18,18,12,20,16,16,15,14,14,14,11,14,19,5,17,3,0,29,7,7,0,0,6,0,0,10,30,20,10,10,3,14,9,3,3,3,14,6,5,5,5,2,5,5,5,6,17,14,8,4,8,295.txt
22,2,3,29,26,16,2,4,6,9,7,13,7,21,9,13,26,28,10,9,8,9,30,11,8,25,14,15,27,29,29,28,17,28,25,25,16,30,24,26,7,28,16,16,7,28,15,17,18,30,25,20,16,16,30,8,5,5,5,8,23,19,24,26,26,297.txt
0,0,24,0,7,0,0,18,0,25,18,21,18,25,18,18,12,20,16,16,15,14,14,14,11,14,19,5,17,3,17,29,7,7,0,2,6,0,0,0,4,4,10,10,19,14,9,3,3,3,3,0,3,3,3,0,14,15,14,25,14,4,27,6,4,300.txt
0,0,24,0,7,0,0,18,0,25,18,21,18,25,18,18,18,17,0,16,15,14,14,14,11,14,19,24,17,3,17,29,7,7,0,2,1,1,1,1,4,4,1,1,1,1,1,1,1,1,3,1,1,1,1,1,1,1,1,1,1,1,1,1,1,303.txt
0,0,24,0,7,0,0,18,0,0,0,21,0,0,0,0,0,0,16,0,0,16,0,17,18,14,0,5,17,3,17,29,7,7,0,2,6,0,0,0,0,0,3,3,3,14,9,3,3,3,3,0,3,3,3,0,14,15,14,25,14,4,27,4,4,305.txt
0,0,24,0,7,0,0,18,0,25,18,21,18,25,18,18,12,20,16,16,15,14,14,14,11,14,19,24,17,3,17,29,7,7,0,2,1,1,1,0,6,7,10,10,19,14,9,3,3,3,3,0,3,3,3,0,14,15,14,25,14,15,27,6,16,307.txt
0,0,24,0,7,0,0,18,0,25,18,21,18,25,18,18,12,20,16,16,15,14,14,14,11,14,19,5,17,3,17,29,7,7,0,2,6,14,0,0,4,4,10,10,19,14,9,3,3,3,3,0,3,3,3,0,14,15,14,25,14,4,0,4,4,311.txt
0,0,24,0,7,0,0,18,0,25,18,21,18,25,18,18,18,17,27,16,15,14,14,14,11,14,19,24,17,3,17,29,7,7,0,2,1,1,1,7,4,4,10,10,19,14,9,3,3,3,3,0,3,3,3,0,14,15,14,25,14,4,27,1,4,313.txt
0,0,24,0,7,0,0,18,0,25,18,21,18,25,18,18,18,17,0,16,15,14,14,14,11,14,19,24,17,3,17,29,7,7,0,2,13,1,5,1,30,20,1,1,1,1,1,1,1,1,1,1,1,1,1,1,1,1,1,1,1,1,1,2,1,318.txt
0,0,24,0,7,0,0,18,0,25,18,21,18,25,18,18,18,17,0,16,15,14,14,14,11,14,19,24,17,3,17,29,7,7,0,2,13,1,5,1,30,20,1,1,1,1,1,1,1,1,1,1,1,1,1,1,1,1,1,1,1,1,1,2,1,320.txt
20,15,3,5,23,24,27,27,27,5,8,14,30,21,10,1,9,1,11,22,6,4,4,21,4,1,1,23,1,1,20,5,23,19,7,15,24,2,16,8,22,29,14,28,21,11,2,21,2,23,16,12,26,28,21,10,13,14,8,6,11,25,20,29,25,322.txt
20,15,3,5,23,24,27,27,27,5,8,14,30,21,10,1,9,1,11,22,6,4,4,21,4,1,1,23,1,1,20,5,23,19,7,15,24,2,16,8,22,29,14,28,21,11,2,21,2,23,16,12,26,28,21,10,13,14,8,6,11,25,20,29,25,323.txt
0,0,24,0,7,0,0,18,0,25,18,21,18,0,0,18,18,17,0,16,15,14,14,14,11,14,19,24,17,3,17,29,7,7,0,2,1,1,1,1,4,4,1,1,1,1,1,1,1,1,1,1,1,1,1,1,1,1,1,1,1,1,1,1,1,324.txt
0,0,25,0,0,0,0,18,0,25,18,21,18,25,18,18,22,21,27,16,15,14,14,14,11,16,19,8,0,3,17,0,0,0,0,0,6,11,0,22,4,4,10,10,19,14,9,3,3,3,14,30,7,7,7,2,24,18,19,8,17,14,8,18,8,326.txt
0,0,24,0,7,0,0,18,0,25,18,21,18,25,18,18,12,20,16,16,15,14,14,14,11,14,19,5,17,3,17,29,7,7,0,2,6,0,0,0,4,4,10,10,19,14,9,3,3,3,3,30,3,3,3,0,14,15,14,25,14,4,27,4,4,328.txt
0,0,24,0,7,0,0,18,0,25,18,21,18,25,18,18,18,17,0,16,15,14,14,14,11,14,19,24,17,3,17,30,7,7,0,2,1,1,5,1,4,4,1,1,1,1,1,1,1,1,1,1,1,1,1,1,1,1,1,1,1,1,1,1,1,329.txt
0,0,24,0,7,0,0,18,0,25,18,21,18,25,18,18,18,17,0,16,15,14,14,14,11,14,19,24,17,3,17,29,7,7,0,2,1,1,5,1,4,4,1,1,1,1,1,1,1,1,1,1,1,1,1,1,1,1,1,1,1,1,1,1,1,333.txt
0,0,24,0,7,0,0,18,0,25,18,21,18,25,18,18,18,17,0,16,15,14,14,14,11,14,19,24,17,3,17,29,7,7,0,2,1,1,1,1,4,4,1,1,1,1,1,1,1,1,1,1,1,1,1,1,1,1,1,1,1,1,1,1,1,335.txt
0,0,24,0,7,0,0,18,0,25,18,21,18,25,18,18,18,17,0,16,15,14,14,14,11,14,19,24,17,3,17,29,7,7,0,2,1,1,5,1,4,4,1,1,1,1,1,1,1,1,3,1,1,1,1,1,1,1,1,1,1,1,1,1,1,337.txt
0,0,24,0,7,0,0,18,0,25,18,21,18,25,18,27,12,17,27,16,15,14,14,14,11,15,19,24,0,3,17,0,0,0,0,2,1,1,1,22,6,7,10,10,19,14,9,3,3,3,14,11,7,7,7,2,13,14,6,13,29,7,8,6,17,341.txt
0,0,24,0,7,0,0,18,0,25,18,21,18,25,18,18,12,20,16,16,15,14,14,14,11,14,19,5,17,3,17,29,7,7,0,2,6,0,0,4,4,4,10,10,19,14,9,3,3,3,3,30,3,3,3,4,14,15,14,25,14,4,27,4,4,342.txt
0,0,24,0,7,0,0,18,0,25,18,21,18,25,18,18,12,20,16,16,15,14,14,14,11,14,19,24,17,3,17,29,7,7,0,2,1,1,1,0,4,4,10,10,19,14,9,3,3,3,3,0,3,3,3,0,14,15,14,25,14,4,27,9,4,344.txt
0,0,24,0,7,0,0,18,0,25,18,21,18,25,18,18,18,17,16,16,15,14,14,14,11,14,19,24,17,3,17,29,7,7,0,2,1,1,1,0,4,4,6,6,6,14,9,15,13,16,3,0,3,3,3,0,14,15,14,25,14,4,27,6,4,347.txt
0,0,25,0,0,0,0,18,0,25,18,0,18,25,18,18,22,20,16,16,15,14,14,14,11,14,19,5,17,3,0,29,7,7,0,0,6,0,0,0,30,20,10,10,19,14,9,3,3,3,14,8,5,5,5,2,0,0,0,6,21,16,10,4,6,349.txt
0,0,24,0,7,0,0,18,0,25,18,21,18,25,18,18,12,20,16,16,15,14,14,14,11,14,19,5,17,3,17,29,7,7,0,2,6,0,0,0,30,20,10,10,19,14,9,3,3,3,14,0,3,3,3,2,14,15,14,25,21,16,8,4,6,352.txt
0,0,25,0,0,0,0,18,0,25,18,9,18,25,18,18,12,20,16,16,15,14,14,14,11,14,19,5,17,8,17,29,7,7,0,0,6,0,0,13,30,20,6,6,6,17,0,22,11,6,0,5,3,3,3,27,14,15,14,25,11,9,12,4,9,354.txt
0,0,24,0,7,0,0,18,0,25,18,21,18,25,18,18,18,17,0,16,15,14,14,14,11,16,19,24,0,3,17,0,0,0,0,2,1,1,5,1,4,4,1,1,1,1,1,1,1,1,1,1,1,1,1,1,1,1,1,1,1,1,1,2,1,358.txt
0,0,24,0,7,0,0,18,0,25,18,21,18,25,18,18,18,17,0,16,15,14,14,14,11,16,19,24,0,3,17,0,0,0,0,2,1,1,5,1,4,4,1,1,1,1,1,1,1,1,1,1,1,1,1,1,1,1,1,1,1,1,1,1,1,360.txt
0,0,25,0,0,0,0,18,0,25,18,21,18,25,18,18,12,20,16,16,15,14,14,14,11,14,19,5,17,3,17,29,7,7,0,0,6,11,0,0,4,4,10,10,19,14,9,3,3,3,3,14,3,3,3,0,14,15,14,25,14,4,27,4,4,362.txt
0,0,24,0,7,0,0,18,0,25,18,21,18,25,18,18,12,20,16,16,15,14,14,14,11,16,19,27,0,3,17,0,0,0,0,2,6,11,0,0,4,4,10,10,19,14,9,3,3,3,3,0,3,3,3,0,14,15,14,25,14,4,27,25,4,364.txt
0,0,24,0,7,0,0,18,0,25,18,21,18,25,18,18,18,17,0,16,15,14,14,14,11,14,19,24,17,3,17,29,7,7,0,2,1,1,1,1,4,4,1,1,1,1,1,1,1,1,1,1,1,1,1,1,1,1,1,1,1,1,1,6,1,365.txt
0,0,24,0,7,0,15,18,0,25,18,21,18,25,18,18,18,17,0,16,15,14,14,14,11,14,19,24,17,3,17,29,7,7,0,2,13,1,1,1,30,20,1,1,1,1,1,1,1,1,1,1,1,1,1,1,1,1,1,1,1,1,1,2,1,368.txt
0,0,24,0,7,0,0,18,0,25,18,21,18,25,18,18,18,17,27,16,15,14,14,14,11,14,19,24,17,3,17,29,7,7,0,2,11,11,0,13,30,20,10,10,19,14,9,3,3,3,1,0,9,9,14,3,19,8,9,16,10,11,16,6,18,369.txt
0,0,24,0,7,0,0,18,0,25,18,21,18,25,18,18,18,17,0,16,15,14,14,14,11,14,19,24,17,3,17,29,7,7,0,2,1,1,1,1,4,4,1,1,1,1,1,1,1,1,1,1,1,1,1,1,1,1,1,1,1,1,1,6,1,371.txt
23,15,3,29,30,16,29,27,30,5,7,14,29,21,9,13,26,12,11,22,4,21,21,4,12,25,9,18,24,22,13,26,20,19,13,25,16,2,16,26,13,25,16,16,13,10,26,18,17,21,2,4,21,21,12,11,5,6,8,8,12,29,20,14,26,375.txt
0,0,25,0,0,0,0,18,0,25,18,0,18,25,18,18,12,20,16,16,15,14,14,14,11,14,19,5,17,3,0,29,7,7,0,0,6,0,0,0,30,20,10,10,19,14,9,3,3,3,5,0,5,5,5,2,5,5,5,6,21,16,8,4,6,377.txt
0,0,24,0,7,0,0,18,0,25,18,21,18,25,18,18,18,17,0,16,15,14,14,14,11,14,19,24,17,3,17,29,7,7,0,2,1,1,1,1,4,4,1,1,1,1,1,1,1,1,1,1,1,1,1,1,1,1,1,1,1,1,1,1,1,380.txt
22,2,23,16,16,3,7,1,9,10,23,1,26,1,1,23,30,30,9,21,1,1,1,1,1,10,18,13,28,6,1,1,1,1,1,1,6,25,27,12,10,9,28,21,10,25,15,7,27,8,3,17,3,3,3,4,14,22,14,25,5,4,5,4,4,382.txt
0,0,24,0,7,0,0,18,0,25,18,0,18,25,18,18,18,17,0,16,15,14,14,14,11,14,19,24,17,3,0,29,7,7,0,2,1,1,1,1,4,4,1,1,1,1,1,1,1,1,1,1,1,1,1,1,1,1,1,1,1,1,1,1,1,385.txt
22,2,3,29,30,16,29,24,24,5,7,28,29,8,9,23,30,12,25,25,4,9,25,4,12,25,9,17,12,29,13,14,20,19,21,15,6,2,16,8,10,13,12,13,10,8,26,7,17,8,2,12,3,3,3,8,14,15,14,25,11,9,12,27,9,386.txt
0,0,25,0,0,0,0,18,0,25,18,21,18,25,18,18,22,21,20,16,15,14,14,14,11,16,19,8,19,3,17,10,9,9,0,0,11,12,0,13,4,4,10,10,19,14,9,3,3,3,16,0,26,28,13,23,24,18,19,0,23,25,29,11,26,387.txt
0,0,24,0,7,0,0,18,0,25,18,21,18,25,18,18,12,20,16,16,15,14,14,14,11,14,19,5,17,3,17,29,7,7,0,2,6,11,0,13,4,4,10,10,19,14,9,3,3,3,3,0,3,3,3,0,14,15,14,25,14,4,27,4,4,391.txt
0,0,24,0,7,0,0,18,0,25,18,0,18,25,18,18,12,20,16,16,15,14,14,14,11,16,19,5,0,3,0,0,0,0,0,2,6,0,0,0,30,20,10,10,19,14,9,3,3,3,14,0,5,5,5,2,5,5,5,6,21,16,8,9,6,394.txt
0,0,24,0,7,0,0,18,0,25,18,21,18,25,18,18,12,21,16,16,15,14,14,14,11,14,19,24,17,3,17,29,7,7,0,2,1,1,1,0,4,4,3,3,3,14,9,3,3,3,3,6,3,3,3,2,14,15,14,25,17,14,8,6,6,395.txt
0,0,24,0,7,0,0,18,0,25,18,21,18,25,18,18,18,17,0,16,15,14,14,14,11,16,19,24,0,3,17,0,0,0,0,2,1,1,1,1,4,4,1,1,1,1,1,1,1,1,3,1,1,1,1,1,1,1,1,1,1,1,1,1,1,397.txt
0,2,1,2,7,0,0,18,0,25,18,21,18,25,18,18,18,17,0,16,2,2,2,2,2,2,2,24,2,2,2,2,2,2,2,1,1,1,1,1,3,8,1,1,1,1,1,1,1,1,1,1,1,1,1,1,1,1,1,1,1,1,1,1,1,400.txt
0,0,24,0,7,0,0,18,0,18,15,21,13,26,24,18,18,17,16,12,12,12,12,12,9,14,7,24,17,15,17,29,7,7,4,2,1,1,1,1,4,4,1,1,1,1,1,1,1,1,3,1,1,1,1,1,1,1,1,1,1,1,26,1,21,402.txt
0,0,24,0,7,0,0,18,0,25,18,21,18,25,18,18,12,20,16,16,15,14,14,14,11,14,19,5,17,3,17,30,7,7,0,2,6,0,0,0,4,4,10,10,19,14,9,3,3,3,3,0,3,3,3,0,14,15,14,25,14,4,27,6,4,405.txt
0,0,24,0,7,0,0,18,0,25,18,21,18,25,18,18,18,17,27,16,15,14,14,14,11,14,19,24,17,3,17,29,7,7,0,2,1,1,1,1,4,4,1,1,1,1,1,1,1,1,3,1,1,1,1,1,1,1,1,1,1,1,1,6,1,407.txt
22,2,3,16,16,3,0,4,9,10,23,1,26,1,1,8,1,10,9,21,4,6,6,4,7,10,18,1,14,12,11,14,20,5,30,1,6,2,16,2,11,8,16,16,11,2,26,7,17,8,3,0,3,3,3,2,14,15,14,25,14,4,27,4,4,411.txt
0,0,25,0,0,0,0,18,0,25,18,21,18,25,18,18,12,21,27,16,15,14,14,14,11,14,19,8,17,3,17,29,7,7,0,0,6,0,0,10,30,20,10,10,19,14,9,3,3,3,14,9,9,9,14,9,20,8,9,6,11,25,19,4,25,413.txt
0,0,24,0,7,0,0,18,0,25,18,21,18,25,18,18,12,17,16,16,15,14,14,14,11,14,19,24,17,3,17,30,7,7,0,2,1,1,1,0,4,4,10,10,19,14,9,3,3,3,3,0,3,3,3,0,14,15,14,25,14,4,27,0,4,416.txt
9,2,1,2,2,2,13,9,2,3,26,2,3,3,3,3,3,3,3,4,2,2,2,2,2,2,2,3,2,2,2,2,2,2,2,30,1,1,1,1,3,25,1,1,1,1,1,1,1,1,14,1,1,1,1,1,1,1,1,1,1,1,1,1,1,417.txt
0,0,24,0,7,0,12,23,0,25,18,5,18,25,18,18,18,17,0,16,15,14,14,14,11,16,19,24,19,3,15,10,9,9,0,2,13,1,5,1,30,20,1,1,1,1,1,1,1,1,1,1,1,1,1,1,1,1,1,1,1,1,1,2,1,419.txt
0,0,1,5,7,0,0,18,0,25,18,21,18,25,18,18,18,17,27,16,8,6,6,8,7,10,26,24,23,6,6,13,5,5,30,7,1,1,1,0,16,8,29,18,16,2,23,8,20,9,3,0,3,3,3,8,14,15,14,25,14,4,0,6,4,421.txt
0,0,24,0,7,0,0,18,0,25,18,21,18,25,18,18,18,17,0,16,15,14,14,14,11,14,19,24,17,3,17,29,7,7,0,2,1,1,5,1,4,4,1,1,1,1,1,1,1,1,1,1,1,1,1,1,1,1,1,1,1,1,1,1,1,423.txt
0,0,25,0,0,0,0,18,0,25,18,21,18,25,18,18,22,20,16,16,15,14,14,14,11,14,19,5,17,3,17,29,7,7,0,0,6,0,0,0,30,20,10,10,19,14,9,3,3,3,14,7,5,5,5,25,27,8,9,6,17,14,10,4,6,425.txt
0,0,24,0,7,0,0,18,0,25,18,21,18,25,18,18,18,17,0,16,15,14,14,14,11,14,19,24,17,3,17,29,7,7,0,2,13,1,5,1,30,20,1,1,1,1,1,1,1,1,1,1,1,1,1,1,1,1,1,1,1,1,1,2,1,427.txt
0,0,24,0,7,0,0,18,0,25,18,21,18,25,18,18,18,17,0,16,15,14,14,14,11,14,19,24,17,3,17,29,7,7,0,2,1,1,5,1,4,4,1,1,1,1,1,1,1,1,1,1,1,1,1,1,1,1,1,1,1,1,1,2,1,430.txt
0,0,24,0,7,0,0,18,0,25,18,21,18,25,18,18,12,20,16,16,15,14,14,14,11,14,19,5,17,3,17,29,7,7,0,2,6,0,0,0,4,4,10,10,19,14,9,3,3,3,3,0,3,3,3,2,14,15,14,25,14,4,27,25,4,434.txt
0,0,24,0,7,0,0,18,0,25,18,21,18,25,18,18,18,17,0,16,15,14,14,14,11,14,19,24,17,3,17,29,7,7,0,2,1,1,1,29,4,4,10,10,19,14,9,3,3,3,3,0,3,3,3,0,14,15,14,25,14,4,27,0,4,436.txt
0,0,24,0,7,0,0,18,0,25,18,21,18,25,18,18,18,17,0,16,15,14,14,14,11,14,19,24,17,3,17,30,7,7,0,2,1,1,1,1,4,4,1,1,1,1,1,1,1,1,1,1,1,1,1,1,1,1,1,1,1,1,1,1,1,439.txt
0,0,24,0,7,0,0,18,0,25,18,21,18,25,18,18,18,17,0,16,15,14,14,14,11,16,19,24,30,3,17,24,8,30,0,2,1,1,1,0,4,4,10,10,19,14,11,3,3,3,1,0,2,2,2,3,2,2,2,2,3,3,3,2,3,444.txt
0,0,24,0,7,0,0,18,0,25,18,21,18,25,18,18,12,17,16,16,15,14,14,14,11,14,19,24,17,3,17,29,7,7,0,2,1,1,1,0,4,4,10,10,19,14,9,3,3,3,3,0,3,3,3,0,14,15,14,25,14,4,27,6,4,447.txt
0,0,25,0,0,0,0,18,0,25,18,7,18,25,18,18,23,21,27,16,15,14,14,14,11,16,19,8,0,3,17,0,0,0,0,24,19,16,8,0,4,4,10,10,19,14,11,3,3,3,5,30,7,7,7,7,12,12,6,9,21,16,8,11,6,449.txt
0,0,24,0,7,0,15,18,0,25,18,21,18,25,18,18,18,17,0,16,15,14,14,14,11,14,19,24,17,3,27,29,7,7,0,2,12,1,1,1,28,19,1,1,1,1,1,1,1,1,1,1,1,1,1,1,1,1,1,1,1,1,1,1,1,452.txt
0,0,24,0,7,0,0,18,0,25,18,21,18,25,18,18,12,20,16,16,15,14,14,14,11,14,19,5,17,3,17,29,7,7,0,2,6,0,0,4,4,4,10,10,19,14,9,3,3,3,3,7,3,3,3,5,14,15,14,25,14,4,27,6,4,454.txt
0,0,24,0,7,0,0,18,0,25,18,0,18,25,18,18,18,17,16,16,15,14,14,14,11,14,19,24,17,3,0,29,7,7,0,2,1,1,1,0,4,4,10,10,3,14,9,15,13,16,3,10,3,3,3,4,14,15,14,25,14,4,27,0,4,456.txt
0,0,24,0,7,0,0,18,0,25,18,21,18,25,18,18,18,17,0,16,15,14,14,14,11,14,19,24,17,3,17,29,7,7,0,2,1,1,1,1,4,4,1,1,1,1,1,1,1,1,3,1,1,1,1,1,1,1,1,1,1,1,1,1,1,458.txt
0,0,24,0,7,0,0,18,0,25,18,21,18,25,18,18,12,20,16,16,15,14,14,14,11,14,19,5,17,3,17,29,7,7,0,2,6,11,0,0,4,4,10,10,19,14,9,3,3,3,3,0,3,3,3,0,14,15,14,25,14,4,27,6,4,460.txt
0,0,24,0,7,0,15,18,0,25,18,21,18,25,18,18,12,20,16,16,15,14,14,14,11,14,19,5,17,3,27,29,7,7,0,2,6,12,0,0,4,4,10,10,19,14,9,3,3,3,3,0,3,3,3,0,14,15,14,25,14,4,27,29,4,463.txt
0,0,24,0,7,0,0,18,0,25,18,21,18,25,18,18,12,20,16,16,15,14,14,14,11,16,19,5,0,3,17,0,0,0,0,2,6,0,0,0,4,4,10,10,19,3,3,3,3,3,3,0,3,3,3,0,14,15,14,25,14,4,27,4,4,465.txt
0,0,24,0,7,0,0,18,0,25,18,0,18,25,18,18,12,20,16,16,15,14,14,14,11,14,19,2,17,3,0,29,7,7,0,2,11,0,0,0,4,4,10,10,19,14,9,3,3,3,6,0,5,5,5,2,24,18,19,0,21,16,8,25,6,469.txt
9,2,1,2,2,2,13,9,9,7,26,10,26,1,7,3,3,3,9,9,8,4,4,11,4,1,1,1,1,1,6,5,5,5,7,1,1,1,1,7,16,8,16,16,16,2,2,2,2,2,3,30,7,7,27,2,5,5,5,8,17,14,8,6,6,472.txt
0,0,24,0,7,0,0,18,0,25,18,21,18,25,18,18,12,20,16,16,15,14,14,14,11,14,19,5,17,3,17,29,7,7,0,2,6,0,0,0,30,20,10,10,19,14,9,3,3,3,21,16,26,28,21,8,27,28,30,6,11,25,8,4,30,473.txt
0,0,24,0,7,0,0,18,0,25,18,21,18,25,18,18,18,17,0,16,15,14,14,14,11,14,19,24,17,3,17,29,7,7,0,2,1,1,1,1,4,4,1,1,1,1,1,1,1,1,1,1,1,1,1,1,1,1,1,1,1,1,1,0,1,475.txt
0,0,24,0,7,0,0,18,0,25,18,0,18,25,18,18,18,17,16,16,15,14,14,14,11,14,19,24,17,3,0,29,7,7,0,2,1,1,1,0,4,4,10,10,19,14,9,15,13,16,3,0,3,3,3,0,14,15,14,25,14,4,27,0,4,477.txt
0,0,24,0,7,0,0,18,0,25,18,21,18,25,18,18,12,17,0,16,15,14,14,14,11,14,19,24,17,3,17,29,7,7,0,2,1,1,1,13,4,4,6,6,6,14,9,3,3,3,3,0,3,3,3,0,14,15,14,25,14,4,27,1,4,479.txt
0,0,24,0,7,0,0,18,0,25,18,21,18,25,18,18,12,20,16,16,15,14,14,14,11,14,19,5,17,0,17,29,7,7,0,2,6,0,0,13,4,4,6,6,6,17,6,22,11,6,3,0,3,3,3,0,14,15,14,25,14,4,27,4,4,481.txt
0,0,24,0,7,0,0,18,0,25,18,21,18,25,18,18,18,17,0,16,15,14,14,14,11,14,19,24,17,3,17,29,7,7,0,2,1,1,1,1,4,4,1,1,1,1,1,1,1,1,1,1,1,1,1,1,1,1,1,1,1,1,1,1,1,485.txt
0,0,24,0,7,0,0,19,0,0,0,21,0,0,0,0,0,0,0,0,0,16,0,17,18,14,0,24,17,3,17,29,7,7,0,2,1,1,1,1,0,0,1,1,1,1,1,1,1,1,1,1,1,1,1,1,1,1,1,1,1,1,1,1,1,487.txt
0,0,24,0,7,0,0,18,0,25,18,21,18,25,18,18,18,21,18,12,15,14,14,14,11,14,19,24,17,3,17,29,7,7,0,2,1,1,1,0,4,4,10,10,19,14,9,3,3,3,3,0,3,3,3,0,14,15,14,25,14,4,27,6,4,488.txt
0,0,24,0,7,0,0,18,0,25,18,21,18,25,18,18,18,17,0,16,15,14,14,14,11,14,19,24,17,3,17,29,7,7,0,2,1,1,1,1,4,4,1,1,1,1,1,1,1,1,1,1,1,1,1,1,1,1,1,1,1,1,1,1,1,491.txt
0,0,24,0,7,0,0,18,0,25,18,21,18,25,18,18,18,17,0,16,15,14,14,14,11,14,19,24,17,3,17,29,7,7,0,2,1,1,1,1,4,4,1,1,1,1,1,1,1,1,3,1,1,1,1,1,1,1,1,1,1,1,1,1,1,492.txt
0,0,24,0,7,0,0,18,0,25,18,21,18,25,18,18,12,20,16,16,15,14,14,14,11,14,19,5,17,3,17,30,7,7,0,2,6,0,0,0,4,4,10,10,19,3,3,3,3,3,3,0,3,3,3,0,14,15,14,25,14,4,27,9,4,494.txt
0,0,27,0,10,0,24,6,0,25,18,19,18,25,18,18,12,22,18,16,15,14,14,14,11,14,19,6,17,3,17,30,7,7,0,0,0,0,0,0,6,7,10,10,19,14,9,3,3,3,14,0,23,25,7,29,12,12,8,10,21,16,10,5,6,496.txt
0,0,24,0,7,0,0,18,0,25,18,21,18,25,18,18,18,17,0,16,15,14,14,14,11,14,19,24,17,3,17,29,7,7,0,2,1,1,5,1,30,20,1,1,1,1,1,1,1,1,1,1,1,1,1,1,1,1,1,1,1,1,1,2,1,498.txt
0,0,24,0,7,0,0,18,0,25,18,21,18,25,18,18,18,17,0,16,15,14,14,14,11,14,19,24,17,3,17,30,7,7,0,2,1,1,1,1,4,4,1,1,1,1,1,1,1,1,1,1,1,1,1,1,1,1,1,1,1,1,1,0,1,500.txt
0,0,24,0,7,0,0,18,0,25,18,7,18,25,18,18,12,21,27,16,15,14,14,14,11,14,19,8,17,3,17,29,7,7,0,2,23,0,0,22,4,4,10,10,19,14,9,3,3,3,14,8,5,5,5,2,5,5,5,8,17,14,8,5,8,502.txt
0,0,24,0,7,0,0,18,0,25,18,0,18,25,18,18,12,20,16,16,15,14,14,14,11,14,19,5,17,3,0,30,7,7,0,2,6,0,0,0,4,4,10,10,19,3,3,3,3,3,3,8,3,3,3,18,14,15,14,25,14,4,27,4,4,503.txt
0,0,24,0,7,0,0,18,0,25,18,21,18,25,18,18,12,20,16,16,15,14,14,14,11,14,19,5,17,3,17,30,7,7,0,2,6,0,0,4,4,4,3,3,3,14,9,3,3,3,3,10,3,3,3,4,14,15,14,25,14,4,27,6,4,505.txt
0,0,24,0,7,0,0,18,0,25,18,21,18,25,18,18,18,17,16,16,15,14,14,14,11,14,19,24,17,3,17,29,7,7,0,2,1,1,1,1,4,4,1,1,1,1,1,1,1,1,3,1,1,1,1,1,1,1,1,1,1,1,1,1,1,507.txt
0,0,24,0,7,0,0,18,0,25,18,21,18,25,18,18,12,20,16,16,15,14,14,14,11,14,19,5,17,3,17,29,7,7,0,2,6,12,0,0,4,4,10,10,19,14,9,3,3,3,3,0,3,3,3,0,14,15,14,25,14,4,27,6,4,510.txt
0,0,24,0,7,0,0,18,0,25,18,21,18,25,18,18,18,17,0,16,15,14,14,14,11,14,19,24,17,3,17,30,7,7,0,2,1,1,1,1,4,4,1,1,1,1,1,1,1,1,3,1,1,1,1,1,1,1,1,1,1,1,1,1,1,513.txt
0,0,24,0,7,0,0,18,0,25,18,21,18,25,18,18,18,17,0,16,15,14,14,14,11,14,19,24,17,3,17,29,7,7,0,2,1,1,5,1,4,4,1,1,1,1,1,1,1,1,1,1,1,1,1,1,1,1,1,1,1,1,1,1,1,516.txt
0,0,25,0,0,0,0,18,0,25,18,21,18,25,18,18,12,20,16,16,15,14,14,14,11,14,19,5,17,3,17,29,7,7,0,0,6,0,0,4,30,20,10,10,19,14,9,3,3,3,5,10,3,3,3,2,14,15,14,25,17,14,8,4,8,518.txt
22,2,1,16,16,3,13,4,9,10,7,1,26,1,1,23,1,27,9,9,8,19,18,11,15,10,18,17,16,6,11,16,18,15,30,1,11,17,17,26,21,8,16,16,21,20,28,8,27,17,3,24,6,6,6,7,5,5,5,8,14,4,27,11,4,521.txt
9,2,3,30,2,2,29,20,27,5,26,26,5,11,6,3,3,3,15,30,8,6,6,11,12,20,27,18,23,29,10,13,6,14,11,22,1,1,7,27,26,22,29,18,9,23,23,2,20,2,27,30,20,20,12,8,24,18,19,0,11,26,15,6,30,524.txt
0,0,3,8,0,0,24,5,0,25,18,19,18,25,18,18,22,24,27,16,21,4,4,6,4,1,1,6,1,1,20,5,23,5,7,5,17,7,9,14,19,6,13,30,9,2,2,7,2,8,14,0,9,9,13,25,19,8,9,6,11,2,2,4,2,527.txt
0,0,24,0,7,0,0,18,0,25,18,21,18,25,18,18,18,17,0,3,15,14,14,14,11,14,19,24,17,3,17,29,7,7,0,2,1,1,1,1,4,4,1,1,1,1,1,1,1,1,1,1,1,1,1,1,1,1,1,1,1,1,1,1,1,529.txt
0,0,24,0,7,0,0,18,0,25,18,21,18,25,18,18,12,17,16,16,15,14,14,14,11,14,19,24,17,3,17,29,7,7,0,2,1,1,1,13,4,4,10,10,19,14,9,3,3,3,3,10,3,3,3,18,14,15,14,25,14,4,27,6,4,530.txt
0,0,24,0,7,0,0,18,0,25,18,21,18,25,18,18,12,17,16,16,15,14,14,14,11,14,19,24,17,3,17,29,7,7,0,2,1,1,1,4,4,4,10,10,19,14,9,15,13,16,3,8,3,3,3,5,14,15,14,25,14,4,27,6,4,532.txt
0,0,24,0,7,0,0,18,0,25,18,21,18,25,18,18,12,21,16,16,15,14,14,14,11,14,19,8,17,3,17,29,7,7,0,2,9,0,0,0,30,20,3,3,3,14,9,3,3,3,16,7,0,0,0,29,24,18,19,22,11,11,15,25,26,534.txt
0,0,24,0,7,0,15,18,0,25,18,21,18,25,18,18,18,17,0,16,15,14,14,14,11,14,19,24,17,15,17,29,7,7,0,11,1,1,1,1,4,4,1,1,1,1,1,1,1,1,1,1,1,1,1,1,1,1,1,1,1,1,1,1,1,536.txt
0,0,24,0,7,0,0,18,0,25,18,21,18,25,18,18,18,17,0,16,15,14,14,14,11,14,19,24,17,3,17,30,7,7,0,2,1,1,1,1,4,4,1,1,1,1,1,1,1,1,1,1,1,1,1,1,1,1,1,1,1,1,1,1,1,538.txt
0,0,25,28,0,0,0,18,0,25,18,21,18,25,18,18,12,20,16,16,15,14,14,14,11,14,19,5,17,3,19,29,7,7,0,0,6,0,0,4,4,4,6,6,6,14,9,3,3,3,3,14,29,3,24,18,17,15,17,25,14,18,27,4,22,541.txt
0,0,24,0,7,0,0,18,0,25,18,21,18,25,18,18,18,17,0,3,15,14,14,14,11,14,19,24,17,15,17,29,7,7,0,2,1,1,1,1,4,4,1,1,1,1,1,1,1,1,3,1,1,1,1,1,1,1,1,1,1,1,1,1,1,543.txt
0,0,24,0,7,0,0,18,0,25,18,0,18,25,18,18,18,17,0,16,15,14,14,14,11,16,19,2,0,3,0,0,0,0,0,2,1,1,1,1,4,4,1,1,1,1,1,1,1,1,1,1,1,1,1,1,1,1,1,1,1,1,1,1,1,545.txt
0,0,24,0,7,0,15,18,0,25,18,21,18,25,18,18,18,17,0,16,15,14,14,14,11,14,19,24,17,3,5,29,7,7,0,2,1,1,5,1,4,4,1,1,1,1,1,1,1,1,1,1,1,1,1,1,1,1,1,1,1,1,1,2,1,549.txt
0,0,24,0,7,0,0,18,0,25,18,21,18,25,18,18,12,17,16,16,15,14,14,14,11,14,19,24,17,3,17,29,7,7,0,2,9,0,0,0,4,4,10,10,19,14,9,15,13,16,3,6,3,3,3,0,14,15,14,25,14,4,27,6,4,551.txt
0,0,24,0,7,0,0,18,0,25,18,21,18,25,18,18,18,17,16,16,15,14,14,14,11,14,19,24,17,3,17,30,7,7,0,2,1,1,1,13,4,4,6,6,6,14,9,3,3,3,3,0,3,3,3,0,14,15,14,25,14,4,27,6,4,554.txt
0,0,24,0,7,0,0,18,0,25,18,21,18,25,18,18,12,21,16,16,15,14,14,14,11,14,19,8,17,3,17,29,7,7,0,2,6,0,0,0,4,4,10,10,19,14,9,3,3,3,3,0,3,3,3,2,14,15,14,25,21,16,8,5,6,557.txt
0,0,25,0,0,0,0,18,0,25,18,21,18,25,18,18,22,20,16,16,15,14,14,14,11,14,19,5,17,3,17,29,7,7,0,0,6,0,0,13,30,20,10,10,19,14,9,3,3,3,14,0,14,14,14,8,24,18,19,6,11,9,12,9,9,558.txt
0,0,24,0,7,0,0,18,0,25,18,21,18,25,18,18,12,20,16,16,15,14,14,14,11,14,19,5,17,3,17,29,7,7,0,2,6,0,0,0,4,4,10,10,19,14,9,3,3,3,3,0,3,3,3,0,14,15,14,25,14,4,27,6,4,561.txt
22,15,3,5,6,12,2,4,6,9,7,13,8,14,15,9,11,11,10,9,4,6,6,4,12,19,9,15,14,16,6,20,5,20,21,15,6,2,16,8,10,28,16,16,10,10,26,18,17,21,6,0,3,3,3,2,14,15,14,25,11,23,20,4,26,564.txt
0,0,24,0,7,0,0,18,0,25,18,21,18,25,18,18,12,17,16,16,15,14,14,14,11,14,19,24,17,3,17,29,7,7,0,2,1,1,1,0,4,4,10,10,19,14,9,3,3,3,3,0,3,3,3,0,14,15,14,25,14,4,27,6,4,566.txt
0,0,24,0,7,0,0,18,0,25,18,0,18,25,18,18,12,21,16,16,15,14,14,14,11,14,19,8,17,3,0,29,7,7,0,2,0,0,0,0,30,20,10,10,3,14,9,3,3,3,5,0,5,5,5,2,5,5,5,8,21,16,8,5,6,568.txt
0,0,24,0,7,0,0,18,0,25,18,21,18,25,18,18,18,17,16,16,15,14,14,14,11,14,19,24,17,3,17,29,7,7,0,2,1,1,1,0,4,4,10,10,19,14,9,3,3,3,3,0,3,3,3,0,14,15,14,25,14,4,27,6,4,572.txt
0,0,24,0,7,0,0,18,0,25,18,21,18,25,18,18,18,17,0,16,15,14,14,14,11,14,19,24,17,3,17,29,7,7,0,2,1,1,1,1,4,4,1,1,1,1,1,1,1,1,1,1,1,1,1,1,1,1,1,1,1,1,1,6,1,574.txt
0,0,24,0,7,0,0,18,0,25,18,21,18,25,18,18,12,17,16,6,15,14,14,14,11,14,19,24,17,3,17,29,7,7,0,2,1,1,1,13,4,4,10,10,19,14,9,3,3,3,3,0,3,3,3,0,14,15,14,25,14,4,0,6,4,576.txt
0,0,24,0,7,0,0,18,0,25,18,21,18,25,18,18,18,17,0,16,15,14,14,14,11,14,19,24,17,3,17,29,7,7,0,2,1,1,1,1,4,4,1,1,1,1,1,1,1,1,1,1,1,1,1,1,1,1,1,1,1,1,1,1,1,578.txt
0,0,24,0,7,0,0,18,0,25,18,21,18,25,18,18,12,20,16,16,15,14,14,14,11,14,19,5,17,3,17,29,7,7,0,2,6,0,0,7,4,4,10,10,19,14,9,3,3,3,3,6,3,3,3,4,14,15,14,25,14,4,27,4,4,580.txt
0,0,24,0,7,0,0,18,0,25,18,0,18,25,18,18,18,17,0,16,15,14,14,14,11,14,19,24,17,3,0,30,7,7,0,2,1,1,1,1,4,4,1,1,1,1,1,1,1,1,3,1,1,1,1,1,1,1,1,1,1,1,1,1,1,582.txt
0,0,24,0,7,0,0,18,0,25,18,21,18,25,18,18,18,17,0,16,15,14,14,14,11,14,19,24,17,3,17,29,7,7,0,2,1,1,5,1,4,4,1,1,1,1,1,1,1,1,1,1,1,1,1,1,1,1,1,1,1,1,1,1,1,584.txt
9,2,1,5,2,2,13,4,6,9,26,13,26,1,16,3,3,3,10,9,6,6,6,6,7,8,18,10,23,10,6,13,5,15,30,5,1,1,1,0,16,22,16,16,16,11,23,2,20,2,3,0,5,5,5,2,5,5,5,8,21,16,8,6,6,586.txt
0,0,24,0,7,0,0,18,0,25,18,21,18,25,18,18,18,17,0,16,15,14,14,14,11,14,19,24,17,3,17,29,7,7,0,2,1,1,1,24,4,4,10,10,19,14,9,3,3,3,14,0,7,7,7,23,24,18,19,8,21,16,8,1,6,588.txt
0,0,24,0,7,0,0,18,0,25,18,21,18,25,18,18,18,17,27,16,15,14,14,14,11,14,19,24,17,3,17,29,7,7,0,2,1,1,1,0,4,4,10,10,19,14,9,3,3,3,3,0,3,3,3,0,14,15,14,25,14,4,27,6,4,591.txt
0,0,24,0,7,0,0,18,0,25,18,21,18,25,18,18,12,20,16,16,15,14,14,14,11,14,19,5,17,3,17,30,7,7,0,2,6,0,0,0,4,4,3,3,3,3,3,15,13,16,3,0,3,3,3,0,14,15,14,25,14,4,27,6,4,594.txt
0,0,24,0,7,0,0,18,0,25,18,0,18,25,18,18,18,17,0,16,15,14,14,14,11,14,19,24,17,3,0,29,7,7,0,2,1,1,1,1,4,4,1,1,1,1,1,1,1,1,1,1,1,1,1,1,1,1,1,1,1,1,1,1,1,596.txt
0,0,24,0,7,0,12,18,0,25,18,21,18,25,18,18,18,17,0,16,15,14,14,14,11,14,19,24,17,3,5,29,7,7,0,2,1,1,5,1,4,4,1,1,1,1,1,1,1,1,1,1,1,1,1,1,1,1,1,1,1,1,1,1,1,598.txt
0,0,24,0,7,0,0,18,0,25,18,21,18,25,18,18,18,17,0,16,15,14,14,14,11,14,19,24,17,3,17,29,7,7,0,2,1,1,5,0,4,4,10,10,19,14,11,3,3,3,3,24,3,3,3,7,14,15,14,25,14,4,27,1,4,600.txt
0,0,24,0,7,0,0,18,0,25,18,21,18,25,18,18,18,17,16,16,15,14,14,14,11,14,19,24,17,3,17,29,7,7,0,2,1,1,1,1,4,4,1,1,1,1,1,1,1,1,3,1,1,1,1,1,1,1,1,1,1,1,1,1,1,603.txt
0,0,24,0,7,0,0,18,0,25,18,21,18,25,18,18,12,20,16,16,15,14,14,14,11,14,19,5,17,3,17,29,7,7,0,2,6,0,0,0,4,4,10,10,19,14,9,3,3,3,3,0,3,3,3,0,14,15,14,25,14,4,27,6,4,604.txt
0,0,24,0,7,0,0,18,0,0,0,21,0,0,0,0,0,0,27,0,0,16,0,17,18,0,0,24,0,3,17,0,0,0,0,2,1,1,1,13,0,0,10,10,19,14,9,3,3,3,3,10,5,5,5,23,20,10,11,16,20,17,8,6,6,606.txt
0,0,24,0,7,0,15,18,0,25,18,21,18,25,18,18,18,17,0,16,15,14,14,14,11,14,19,24,17,3,17,29,7,7,0,2,1,1,1,1,4,4,1,1,1,1,1,1,1,1,1,1,1,1,1,1,1,1,1,1,1,1,1,6,1,607.txt
0,0,24,0,7,0,0,18,0,25,18,21,18,25,18,18,19,20,16,16,15,14,14,14,11,14,19,5,17,3,17,29,7,7,0,2,6,0,0,0,4,4,10,10,19,14,9,3,3,3,3,0,3,3,3,0,14,15,14,25,14,4,27,9,4,613.txt
0,0,24,0,7,0,0,18,0,25,18,21,18,25,18,18,18,17,0,16,15,14,14,14,11,14,19,24,17,3,17,30,7,7,0,2,1,1,1,1,4,4,1,1,1,1,1,1,1,1,1,1,1,1,1,1,1,1,1,1,1,1,1,1,1,615.txt
0,0,24,0,7,0,0,18,0,25,18,21,18,25,18,18,18,17,0,16,15,14,14,14,11,14,19,24,17,3,17,29,7,7,0,2,1,1,1,1,4,4,1,1,1,1,1,1,1,1,1,1,1,1,1,1,1,1,1,1,1,1,1,1,1,618.txt
0,0,24,0,7,0,0,18,0,25,18,21,18,25,18,18,18,17,0,16,15,14,14,14,11,16,19,24,19,3,17,10,9,9,0,2,1,1,5,1,4,4,1,1,1,1,1,1,1,1,1,1,1,1,1,1,1,1,1,1,1,1,1,1,1,621.txt
0,0,24,0,7,0,0,18,0,25,18,21,18,25,18,18,18,17,0,16,15,14,14,14,11,14,19,24,17,3,17,30,7,7,0,2,1,1,1,1,4,4,1,1,1,1,1,1,1,1,1,1,1,1,1,1,1,1,1,1,1,1,1,1,1,623.txt
22,15,3,29,26,16,2,4,6,9,7,13,29,19,9,23,1,12,10,9,6,6,6,22,7,25,18,17,13,30,11,26,20,15,30,25,0,2,16,26,21,28,16,16,22,11,26,18,17,21,5,0,23,25,27,8,5,5,5,8,6,6,8,25,6,624.txt
0,0,24,0,7,0,0,18,0,25,18,21,18,25,18,18,18,17,0,16,15,14,14,14,11,14,19,24,17,3,17,29,7,7,0,2,1,1,1,1,4,4,1,1,1,1,1,1,1,1,1,1,1,1,1,1,1,1,1,1,1,1,1,1,1,627.txt
0,0,24,0,7,0,0,18,0,25,18,21,18,25,18,18,18,17,0,16,15,14,14,14,11,14,19,24,17,3,17,29,7,7,0,2,1,1,1,1,4,4,1,1,1,1,1,1,1,1,1,1,1,1,1,1,1,1,1,1,1,1,1,1,1,628.txt
0,0,24,0,7,0,0,18,0,0,0,0,0,0,0,0,0,0,0,0,0,16,0,17,18,14,0,24,17,3,0,29,7,7,0,2,1,1,1,1,0,0,1,1,1,1,1,1,1,1,1,1,1,1,1,1,1,1,1,1,1,1,1,1,1,629.txt
4,14,7,2,2,25,18,21,30,15,21,28,5,11,10,7,8,7,23,30,24,7,7,5,5,26,15,14,29,22,11,16,18,15,30,30,5,4,7,26,19,30,23,18,9,20,18,29,27,18,23,23,13,13,19,7,11,13,25,21,11,24,20,21,30,631.txt
0,0,26,0,10,0,0,18,0,25,18,21,18,25,18,18,24,21,16,16,15,14,14,14,11,14,19,6,17,3,17,29,7,7,0,12,6,16,8,9,30,20,10,10,19,14,9,3,3,3,20,16,26,28,18,9,6,6,8,6,16,24,21,4,25,633.txt
0,0,24,0,7,0,0,18,0,25,18,21,18,25,18,18,18,17,16,16,15,14,14,14,11,14,19,24,17,3,17,29,7,7,0,2,1,1,1,1,4,4,1,1,1,1,1,1,1,1,3,1,1,1,1,1,1,1,1,1,1,1,1,1,1,635.txt
0,0,24,0,7,0,0,18,0,25,18,21,18,25,18,18,18,17,0,16,15,14,14,14,11,14,19,24,17,3,17,29,7,7,0,2,1,1,1,0,4,4,10,10,19,14,9,3,3,3,3,0,12,12,13,0,19,27,11,16,14,4,27,0,4,637.txt
0,0,24,0,7,0,15,18,0,25,18,21,18,25,18,18,18,17,0,16,15,14,14,14,11,16,19,24,19,3,17,10,9,9,0,2,1,1,1,1,4,4,1,1,1,1,1,1,1,1,16,1,1,1,1,1,1,1,1,1,1,1,1,1,1,642.txt
0,0,24,0,7,0,0,18,0,25,18,21,18,25,18,18,18,17,0,16,15,14,14,14,11,14,19,24,17,3,17,30,7,7,0,2,1,1,1,1,4,4,1,1,1,1,1,1,1,1,3,1,1,1,1,1,1,1,1,1,1,1,1,1,1,645.txt
22,2,3,16,16,13,7,1,9,10,23,1,17,16,1,8,14,10,9,21,22,9,30,15,15,10,18,23,14,6,26,14,29,16,15,1,6,7,9,26,13,8,15,15,12,22,7,30,7,17,9,10,3,3,3,4,14,15,14,25,14,4,27,29,4,647.txt
0,0,24,0,7,0,0,18,0,25,18,21,18,25,18,18,18,17,0,16,15,14,14,14,11,14,19,24,17,3,17,29,7,7,0,2,1,1,1,1,4,4,1,1,1,1,1,1,1,1,3,1,1,1,1,1,1,1,1,1,1,1,1,1,1,650.txt
0,0,24,0,7,0,0,18,0,25,18,21,18,25,18,18,12,20,16,16,15,14,14,14,11,14,19,5,17,3,17,8,7,7,0,2,6,11,0,0,4,4,10,10,19,14,9,3,3,3,3,0,3,3,3,0,14,15,14,25,0,4,27,4,4,652.txt
0,0,24,0,7,0,0,18,0,25,18,0,18,25,18,18,18,17,0,16,15,14,14,14,11,14,19,2,17,3,0,30,7,7,0,2,1,1,5,1,4,4,1,1,1,1,1,1,1,1,1,1,1,1,1,1,1,1,1,1,1,1,1,2,1,654.txt
0,0,24,0,7,0,0,18,0,25,18,21,18,25,18,18,12,20,16,16,15,14,14,14,11,14,19,24,17,3,17,30,7,7,0,2,6,0,0,0,4,4,10,10,19,14,9,3,3,3,3,0,3,3,3,0,14,15,14,25,14,4,27,6,4,657.txt
0,0,24,0,7,0,0,18,0,25,18,21,18,25,18,18,18,17,0,16,15,14,14,14,11,14,19,24,17,3,17,29,7,7,0,2,1,1,5,1,4,4,1,1,1,1,1,1,1,1,1,1,1,1,1,1,1,1,1,1,1,1,1,1,1,658.txt
0,0,25,0,0,0,12,23,0,25,18,3,18,25,18,18,18,17,0,16,15,14,14,14,11,14,19,8,17,3,17,29,7,7,0,0,4,12,8,0,4,4,10,10,19,14,11,3,3,3,1,23,2,2,2,3,2,2,2,2,3,3,3,2,3,662.txt
0,0,24,0,7,0,0,18,0,25,18,21,18,25,18,18,18,17,16,16,15,14,14,14,11,14,19,24,17,3,17,30,7,7,0,2,1,1,1,13,4,4,10,10,19,3,3,3,3,3,3,10,3,3,3,0,14,15,14,25,14,4,27,1,4,663.txt
0,0,24,0,7,0,0,18,0,25,18,21,18,25,18,18,18,17,0,16,15,14,14,14,11,14,19,24,17,3,17,29,7,7,0,2,1,1,1,1,4,4,1,1,1,1,1,1,1,1,1,1,1,1,1,1,1,1,1,1,1,1,1,1,1,665.txt
0,0,24,0,7,0,15,18,0,25,18,21,18,25,18,18,18,17,0,16,15,14,14,14,11,14,19,24,17,3,17,29,7,7,0,2,1,1,1,1,4,4,1,1,1,1,1,1,1,1,1,1,1,1,1,1,1,1,1,1,1,1,1,1,1,669.txt
0,0,24,0,7,0,0,18,0,25,18,21,18,25,18,18,12,17,16,16,15,14,14,14,11,14,19,24,17,15,17,29,7,7,0,2,1,1,1,0,4,4,20,25,25,5,6,25,5,6,3,10,3,3,3,5,14,15,14,25,0,4,27,1,4,671.txt
0,0,24,0,7,0,0,18,0,25,18,21,18,25,18,18,12,20,16,16,15,14,14,14,11,14,19,5,17,3,17,29,7,7,0,2,6,12,0,0,4,4,10,10,19,14,9,3,3,3,3,0,3,3,3,0,14,15,14,25,14,4,27,6,4,673.txt
0,0,24,0,7,0,0,18,0,25,18,21,18,25,18,18,18,20,16,16,15,14,14,14,11,14,19,24,17,3,17,29,7,7,0,2,1,1,1,1,4,4,1,1,27,1,30,28,1,26,3,27,1,24,23,19,23,20,22,28,22,1,1,1,1,675.txt
24,15,3,5,5,12,2,4,6,9,5,4,8,14,6,1,1,1,25,18,4,4,4,4,4,1,1,1,1,1,6,5,5,5,7,5,6,7,9,8,10,6,12,13,10,2,2,7,2,8,14,0,23,25,27,2,24,0,0,6,21,16,10,4,6,678.txt
0,0,24,0,7,0,0,18,0,25,18,21,18,25,18,18,18,17,0,16,15,14,14,14,11,14,19,24,17,3,17,29,7,7,0,2,1,1,1,1,4,4,1,1,1,1,1,1,1,1,3,1,1,1,1,1,1,1,1,1,1,1,1,1,1,680.txt
0,0,24,0,7,0,0,18,0,25,18,21,18,0,0,18,18,17,0,16,15,14,14,14,11,14,19,24,17,3,17,29,7,7,0,2,1,1,1,1,4,4,1,1,1,1,1,1,1,1,1,1,1,1,1,1,1,1,1,1,1,1,1,1,1,683.txt
0,0,24,0,7,0,0,18,0,25,18,21,18,25,18,18,18,17,0,16,15,14,14,14,11,14,19,24,17,3,17,29,7,7,0,2,1,1,5,1,4,4,1,1,1,1,1,1,1,1,1,1,1,1,1,1,1,1,1,1,1,1,1,1,1,685.txt
0,0,24,0,7,0,0,18,0,25,18,21,18,25,18,18,18,17,0,16,15,14,14,14,11,14,19,24,17,3,17,29,7,7,0,2,1,1,1,1,4,4,1,1,1,1,1,1,1,1,1,1,1,1,1,1,1,1,1,1,1,1,1,1,1,687.txt
0,0,24,0,7,0,0,18,0,25,18,0,18,25,18,18,18,17,0,16,15,14,14,14,11,14,19,24,17,3,0,29,7,7,0,2,1,1,1,1,4,4,1,1,1,1,1,1,1,1,1,1,1,1,1,1,1,1,1,1,1,1,1,1,1,689.txt
0,0,24,0,7,0,0,18,0,25,18,21,18,25,18,18,12,20,16,16,15,14,14,14,11,14,19,5,17,3,17,29,7,7,0,2,6,11,0,0,4,4,10,10,19,14,9,3,3,3,3,0,3,3,3,0,14,15,14,25,14,4,27,6,4,691.txt
22,2,3,29,6,16,0,4,6,9,5,13,29,19,27,23,16,14,10,9,8,6,6,11,15,22,18,15,14,24,14,26,18,20,13,22,15,21,21,16,10,22,16,16,10,28,27,16,18,19,5,20,7,7,27,8,5,5,5,8,21,16,8,18,6,695.txt
0,0,24,0,7,0,0,18,0,0,0,21,0,0,0,0,0,0,0,0,0,16,0,17,18,14,0,24,17,3,17,29,7,7,0,2,1,1,1,1,0,0,1,1,1,1,1,1,1,1,3,1,1,1,1,1,1,1,1,1,1,1,1,1,1,696.txt
0,2,1,5,7,0,0,18,0,25,18,21,18,25,18,18,12,20,16,16,4,4,4,4,4,1,1,24,1,1,6,5,5,5,7,1,6,2,16,0,11,8,29,18,11,2,2,2,2,2,3,0,3,3,3,0,14,15,14,25,14,4,27,6,4,700.txt
0,0,24,28,7,0,0,18,0,25,18,21,18,25,18,18,12,20,16,3,15,14,14,14,11,14,19,5,17,0,19,29,7,7,0,11,6,0,0,4,4,4,6,6,6,17,6,22,11,6,12,6,29,3,24,4,17,15,17,25,14,0,27,4,0,703.txt
9,14,7,19,2,2,2,4,6,29,26,14,29,19,8,7,8,7,11,10,8,24,23,9,14,25,29,20,16,22,14,26,18,20,13,6,1,1,7,16,21,29,17,11,22,23,14,16,19,28,1,18,5,5,5,3,28,17,6,13,20,17,28,6,17,705.txt
0,0,24,0,7,0,0,18,0,25,18,21,18,25,18,18,12,17,16,16,15,14,14,14,11,14,19,24,17,3,17,29,7,7,0,2,1,1,1,1,4,4,1,1,1,1,1,1,1,1,3,1,1,1,1,1,1,1,1,1,1,1,1,1,1,706.txt
0,0,24,0,7,0,0,18,0,25,18,21,18,25,18,27,18,21,27,16,15,14,14,14,11,14,19,24,17,3,17,29,7,7,0,2,1,1,7,0,6,7,10,10,3,14,11,3,3,3,5,0,5,5,5,2,5,5,5,8,21,16,8,6,6,709.txt
0,0,24,0,7,0,0,18,0,25,18,21,18,25,18,18,18,17,16,16,15,14,14,14,11,14,19,24,17,3,17,29,7,7,0,2,1,1,1,0,4,4,10,10,19,14,9,3,3,3,14,0,7,7,7,2,5,5,5,8,21,16,8,6,6,711.txt
0,0,24,0,7,0,0,18,0,25,18,21,18,25,18,18,18,17,0,16,15,14,14,14,11,14,19,24,17,3,17,29,7,7,0,2,1,1,1,0,4,4,10,10,19,14,9,3,3,3,3,6,26,28,13,8,5,5,5,8,27,25,17,6,11,712.txt
0,0,25,0,0,0,0,18,0,25,18,21,18,25,18,18,12,21,27,16,15,14,14,14,11,14,19,8,17,3,17,29,7,7,0,0,6,11,0,0,30,20,10,10,19,14,9,3,3,3,14,0,6,6,6,29,12,12,8,10,21,16,10,25,6,713.txt
0,0,25,0,0,0,12,23,0,25,18,5,18,25,18,18,18,17,0,16,15,14,14,14,11,14,19,24,17,15,17,29,7,7,0,0,13,1,5,0,30,20,6,6,6,17,5,22,6,5,1,25,2,2,2,3,2,2,2,2,3,3,3,2,3,716.txt
0,0,25,0,0,0,0,18,0,25,18,0,18,25,18,18,22,21,16,16,15,14,14,14,11,14,19,22,17,3,0,29,7,7,0,0,6,0,0,0,30,20,10,10,19,14,9,3,3,3,5,0,5,5,5,2,5,5,5,6,21,16,10,9,6,722.txt
0,0,24,0,7,0,0,18,0,25,18,21,18,25,18,18,18,17,27,16,15,14,14,14,11,16,19,24,0,3,17,0,0,0,0,2,1,1,1,4,4,4,10,10,19,3,3,3,3,3,3,8,3,3,3,18,14,15,14,25,14,4,27,6,4,724.txt
0,0,25,0,0,0,12,23,0,25,18,5,18,25,18,18,23,17,0,16,15,14,14,14,11,16,19,8,19,3,17,10,9,9,0,0,4,12,8,0,4,4,10,10,19,14,11,3,3,3,1,23,2,2,2,3,2,2,2,2,3,3,3,2,3,727.txt
0,0,24,0,7,0,0,18,0,25,18,0,18,25,18,18,12,20,16,16,15,14,14,14,11,14,19,5,17,3,0,29,7,7,0,2,6,0,0,0,4,4,10,10,19,14,9,3,3,3,3,0,3,3,3,0,14,15,14,25,14,4,27,4,4,728.txt
0,0,24,0,7,0,0,18,0,25,18,21,18,25,18,18,18,17,0,16,15,14,14,14,11,14,19,24,17,3,17,29,7,7,0,2,1,1,1,1,4,4,1,1,1,1,1,1,1,1,1,1,1,1,1,1,1,1,1,1,1,1,1,1,1,732.txt
0,0,24,0,7,0,0,18,0,25,18,21,18,25,18,18,18,17,16,16,15,14,14,14,11,14,19,24,17,3,17,29,7,7,0,2,1,1,1,1,4,4,1,1,1,1,1,1,1,1,3,1,1,1,1,1,1,1,1,1,1,1,1,1,1,734.txt
0,0,24,0,7,0,0,18,0,25,18,21,18,25,18,18,12,24,27,16,15,14,14,14,11,14,19,22,17,3,17,29,7,7,0,11,9,0,0,16,30,20,10,10,19,14,9,3,3,3,14,6,7,7,7,2,24,18,19,0,17,14,8,25,8,735.txt
0,0,24,0,7,0,0,18,0,25,18,21,18,25,18,18,18,17,16,16,15,14,14,14,11,14,19,24,17,3,17,29,7,7,0,2,1,1,1,0,4,4,10,10,19,14,9,3,3,3,3,0,3,3,3,0,14,15,14,25,14,4,27,6,4,737.txt
0,0,24,0,7,0,0,18,0,25,18,21,18,25,18,18,18,17,0,16,15,14,14,14,11,14,19,24,17,3,17,30,7,7,0,2,1,1,1,1,4,4,1,1,1,1,1,1,1,1,3,1,1,1,1,1,1,1,1,1,1,1,1,1,1,738.txt
0,0,24,0,7,0,0,18,0,25,18,21,18,25,18,18,18,17,0,16,15,14,14,14,11,14,19,24,17,3,17,29,7,7,0,2,1,1,5,1,4,4,1,1,1,1,1,1,1,1,1,1,1,1,1,1,1,1,1,1,1,1,1,1,1,741.txt
0,0,24,0,7,0,0,18,0,25,18,21,18,25,18,27,18,17,0,16,15,14,14,14,11,15,19,24,0,3,17,0,0,0,0,2,1,1,1,1,6,7,1,1,1,1,1,1,1,1,14,1,1,1,1,1,1,1,1,1,1,1,1,1,1,743.txt
0,0,24,0,7,0,0,18,0,25,18,0,18,25,18,18,18,17,0,16,15,14,14,14,11,14,19,2,17,3,0,29,7,7,0,2,1,1,1,1,4,4,1,1,1,1,1,1,1,1,3,1,1,1,1,1,1,1,1,1,1,1,1,1,1,747.txt
0,0,25,0,0,0,0,18,0,25,18,21,18,25,18,18,22,20,16,16,15,14,14,14,11,14,19,5,17,3,17,29,7,7,0,0,6,0,0,13,30,20,10,10,19,14,9,3,3,3,14,0,5,5,5,2,24,0,0,6,21,16,10,4,6,748.txt
0,0,24,0,7,0,0,18,0,25,18,21,18,25,18,18,18,17,16,3,15,14,14,14,11,14,19,24,17,3,17,30,7,7,0,2,1,1,1,13,4,4,10,10,19,3,3,3,3,3,3,0,3,3,3,0,14,15,14,25,14,4,27,6,4,751.txt
0,14,7,19,2,2,24,12,4,9,26,13,23,28,20,23,30,14,10,9,20,5,5,9,21,28,29,24,16,28,29,18,22,27,15,4,1,1,5,28,21,3,16,16,18,19,18,30,27,9,1,30,6,6,6,3,5,5,5,8,20,17,8,10,6,755.txt
0,0,24,0,7,0,0,18,0,25,18,21,18,25,18,18,12,20,16,16,15,14,14,14,11,14,19,5,17,3,17,30,7,7,0,2,6,16,3,4,4,4,10,10,19,13,10,3,3,3,3,30,3,3,3,4,14,15,14,25,14,4,27,6,4,756.txt
0,0,24,0,7,0,0,18,0,25,18,21,18,25,18,18,18,17,0,3,15,14,14,14,11,14,19,24,17,3,17,29,7,7,0,2,1,1,1,1,4,4,1,1,1,1,1,1,1,1,3,1,1,1,1,1,1,1,1,1,1,1,1,1,1,760.txt
0,0,24,0,7,0,0,18,0,25,18,21,18,25,18,18,18,17,0,16,15,14,14,14,11,16,19,24,19,3,17,10,9,9,0,2,1,1,5,1,4,4,1,1,1,1,1,1,1,1,1,1,1,1,1,1,1,1,1,1,1,1,1,1,1,765.txt
0,0,24,0,7,0,3,23,0,25,18,25,18,25,18,18,18,17,0,16,15,14,14,14,11,16,19,24,0,3,0,0,0,0,0,2,1,1,5,0,4,4,10,10,19,14,11,3,3,3,1,23,5,5,5,15,6,6,6,9,21,16,8,0,6,766.txt
0,0,24,0,7,0,0,18,0,25,18,21,18,25,18,18,18,17,0,16,15,14,14,14,11,14,19,24,17,3,17,29,7,7,0,2,1,1,1,1,4,4,1,1,1,1,1,1,1,1,3,1,1,1,1,1,1,1,1,1,1,1,1,1,1,768.txt
0,0,24,0,7,0,0,18,0,25,18,21,18,25,18,18,12,21,27,16,15,14,14,14,11,14,19,8,17,3,17,30,7,7,0,2,0,0,0,0,30,18,10,10,19,14,9,3,3,3,14,0,5,5,5,2,5,5,5,8,21,16,8,5,6,771.txt
0,0,24,0,7,0,0,18,0,25,18,21,18,25,18,18,18,17,0,16,15,14,14,14,11,14,19,24,17,3,17,29,7,7,0,2,1,1,1,13,4,4,10,10,19,14,9,3,3,3,3,0,3,3,3,2,14,15,14,25,14,4,27,0,4,772.txt
0,0,24,0,7,0,0,18,0,25,18,21,18,25,18,18,18,17,0,16,15,14,14,14,11,14,19,24,17,3,17,29,7,7,0,2,1,1,5,1,4,4,1,1,1,1,1,1,1,1,1,1,1,1,1,1,1,1,1,1,1,1,1,2,1,773.txt
0,0,24,0,7,0,0,18,0,25,18,21,18,25,18,18,18,17,0,16,15,14,14,14,11,14,19,24,17,3,17,29,7,7,0,2,1,1,1,1,4,4,1,1,1,1,1,1,1,1,3,1,1,1,1,1,1,1,1,1,1,1,1,1,1,775.txt
0,0,24,0,7,0,0,18,0,25,18,21,18,25,18,18,12,21,27,16,15,14,14,14,11,16,19,8,0,3,17,0,0,0,0,2,9,0,0,13,30,18,10,10,19,14,9,3,3,3,14,7,5,5,5,9,24,18,19,22,17,14,10,25,6,777.txt
0,0,24,0,7,0,0,18,0,25,18,21,18,25,18,18,22,21,28,16,15,14,14,14,11,14,19,8,17,3,17,8,7,7,0,2,6,12,0,0,4,4,10,10,19,14,9,3,3,3,0,0,6,6,6,0,5,5,5,8,14,4,27,5,4,779.txt
0,0,24,0,7,0,0,18,0,25,18,21,18,25,18,18,18,17,0,16,15,14,14,14,11,14,19,24,17,3,17,29,7,7,0,2,1,1,1,1,4,4,1,1,1,1,1,1,1,1,1,1,1,1,1,1,1,1,1,1,1,1,1,1,1,781.txt
0,0,24,0,7,0,0,18,0,25,18,21,18,25,18,18,18,17,16,16,15,14,14,14,11,14,19,24,17,3,17,29,7,7,0,2,1,1,1,1,4,4,1,1,1,1,1,1,1,1,3,1,1,1,1,1,1,1,1,1,1,1,1,0,1,785.txt
0,0,24,0,7,0,0,18,0,25,18,21,18,25,18,18,18,17,0,16,15,14,14,14,11,14,19,24,17,3,17,29,7,7,0,2,1,1,1,1,4,4,1,1,1,1,1,1,1,1,1,1,1,1,1,1,1,1,1,1,1,1,1,1,1,787.txt
0,2,1,2,2,0,0,18,0,25,18,21,18,25,18,18,12,17,16,6,21,6,6,22,6,10,27,24,23,6,6,14,5,15,30,1,1,1,1,13,10,8,13,14,10,8,23,2,20,2,3,0,3,3,3,0,14,15,14,25,14,4,27,0,4,790.txt
0,0,24,0,7,0,0,18,0,25,18,21,18,25,18,18,12,20,16,16,15,14,14,14,11,14,19,5,17,3,17,29,7,7,0,2,6,14,0,13,4,4,10,10,19,14,9,3,3,3,3,0,3,3,3,0,14,15,14,25,14,4,27,6,4,792.txt
0,0,24,0,7,0,0,18,0,25,18,21,18,25,18,18,12,20,16,16,15,14,14,14,11,14,19,5,17,3,17,30,7,7,0,2,6,0,0,0,4,4,10,10,19,14,9,3,3,3,3,0,3,3,3,0,14,15,14,25,14,4,27,6,4,796.txt
0,0,24,0,7,0,0,18,0,25,18,21,18,25,18,18,18,17,16,16,15,14,14,14,11,14,19,24,17,3,17,30,7,7,0,2,1,1,1,0,4,4,10,10,19,3,3,3,3,3,3,0,3,3,3,0,14,15,14,25,14,4,27,1,4,800.txt
0,0,24,0,7,0,0,18,0,25,18,21,18,25,18,18,18,17,16,16,15,14,14,14,11,14,19,24,17,3,17,29,7,7,0,2,1,1,1,1,4,4,1,1,1,1,1,1,1,1,3,1,1,1,1,1,1,1,1,1,1,1,1,1,1,802.txt
0,0,25,0,0,0,0,18,0,25,18,9,18,25,18,18,12,20,16,16,15,14,14,14,11,14,19,5,17,3,17,29,7,7,0,0,6,0,0,4,30,20,10,10,19,14,9,3,3,3,5,30,3,3,3,2,3,3,3,3,8,8,10,4,8,806.txt
0,0,24,0,7,0,0,18,0,25,18,21,18,25,18,18,18,17,0,16,15,14,14,14,11,14,19,24,17,3,17,29,7,7,0,2,1,1,1,1,4,4,1,1,1,1,1,1,1,1,1,1,1,1,1,1,1,1,1,1,1,1,1,1,1,807.txt
0,0,24,0,7,0,0,18,0,0,0,0,0,0,0,0,0,0,0,0,0,16,0,0,18,14,0,2,17,3,0,29,7,7,0,2,1,1,1,1,0,0,1,1,1,1,1,1,1,1,1,1,1,1,1,1,1,1,1,1,1,1,1,1,1,810.txt
0,0,24,0,7,0,0,18,0,25,18,21,18,25,18,18,18,17,0,16,15,14,14,14,11,16,19,24,0,3,17,0,0,0,0,2,1,1,1,1,4,4,1,1,1,1,1,1,1,1,1,1,1,1,1,1,1,1,1,1,1,1,1,1,1,813.txt
9,15,1,29,2,2,13,4,6,9,26,13,22,11,9,3,3,3,10,9,24,22,30,11,7,28,18,10,23,30,29,18,22,28,15,27,1,1,5,27,16,29,16,16,16,20,19,8,18,9,23,30,6,6,6,2,5,5,5,8,20,17,9,6,6,816.txt
0,0,24,0,7,0,0,18,0,25,18,7,18,25,18,18,18,17,0,16,15,14,14,14,11,14,19,24,17,3,17,29,7,7,0,2,1,1,5,1,4,4,1,1,1,1,1,1,1,1,1,1,1,1,1,1,1,1,1,1,1,1,1,2,1,817.txt
0,0,24,0,7,0,0,18,0,25,18,21,18,25,18,18,18,17,27,16,15,14,14,14,11,14,19,24,17,3,17,29,7,7,0,2,1,1,1,0,4,4,10,10,19,14,9,3,3,3,3,0,3,3,3,0,14,15,14,25,14,4,27,6,4,818.txt
0,0,24,0,7,0,0,18,0,25,18,21,18,25,18,18,18,17,0,16,15,14,14,14,11,16,19,24,0,3,15,0,0,0,0,2,1,1,5,1,4,4,1,1,1,1,1,1,1,1,1,1,1,1,1,1,1,1,1,1,1,1,1,2,1,821.txt
0,0,25,0,0,0,0,18,0,25,18,21,18,25,18,18,12,20,16,16,15,14,14,14,11,14,19,5,17,3,17,29,7,7,0,0,6,0,0,0,30,20,3,3,3,14,9,3,3,3,14,0,3,3,3,2,14,15,14,25,21,16,8,4,6,824.txt
0,0,24,0,7,0,0,18,0,25,18,21,18,25,18,18,18,17,16,16,15,14,14,14,11,14,19,24,17,3,17,29,7,7,0,2,1,1,1,0,4,4,30,24,5,14,9,3,3,3,3,5,9,9,13,11,18,8,9,16,11,13,14,6,15,827.txt
0,2,1,5,16,3,0,1,1,10,23,1,26,1,1,1,1,1,1,21,1,1,1,1,1,1,1,15,1,1,6,5,5,15,7,1,6,7,9,0,10,1,23,17,10,10,2,7,2,8,3,0,3,3,3,0,14,15,14,25,14,4,27,4,4,831.txt
0,0,24,0,7,0,0,18,0,25,18,21,18,25,18,18,18,17,0,16,15,14,14,14,11,14,19,24,17,3,17,29,7,7,0,2,1,1,5,1,4,4,1,1,1,1,1,1,1,1,3,1,1,1,1,1,1,1,1,1,1,1,1,1,1,832.txt
0,0,24,0,7,0,0,18,0,25,18,21,18,25,18,18,18,17,16,16,15,14,14,14,11,16,19,24,0,3,17,0,0,0,0,2,1,1,1,13,4,4,10,10,19,14,9,3,3,3,3,0,3,3,3,0,14,15,14,25,14,4,27,6,4,834.txt
0,0,24,0,7,0,0,18,0,25,18,21,18,25,18,18,18,17,16,16,15,14,14,14,11,14,19,24,17,3,17,29,7,7,0,2,1,1,1,4,4,4,10,10,19,14,9,3,3,3,3,10,3,3,3,4,14,15,14,25,14,4,27,6,4,836.txt
0,0,24,0,7,0,0,18,0,25,18,21,18,25,18,18,18,17,0,16,15,14,14,14,11,14,19,24,17,3,17,29,7,7,0,2,1,1,1,0,4,4,10,10,19,14,9,3,3,3,14,0,7,7,7,9,27,27,11,19,21,16,8,6,6,839.txt
0,2,1,2,7,0,0,18,0,25,18,21,18,25,18,18,18,17,0,16,2,2,2,2,2,2,2,24,2,2,2,2,2,2,2,1,1,1,1,1,3,8,1,1,1,1,1,1,1,1,3,1,1,1,1,1,1,1,1,1,1,1,1,1,1,842.txt
0,0,24,0,7,0,0,18,0,25,18,21,18,25,18,18,18,17,0,16,15,14,14,14,11,14,19,24,17,3,3,29,7,7,0,2,1,1,1,1,4,4,1,1,1,1,1,1,1,1,1,1,1,1,1,1,1,1,1,1,1,1,1,1,1,847.txt
0,0,24,0,7,0,0,18,0,25,18,21,18,25,18,18,18,17,0,16,15,14,14,14,11,14,19,24,17,3,17,29,7,7,0,2,1,1,5,1,4,4,1,1,1,1,1,1,1,1,1,1,1,1,1,1,1,1,1,1,1,1,1,1,1,851.txt
0,0,24,0,7,0,0,18,0,18,15,7,13,25,24,18,12,20,16,12,12,12,12,12,9,14,7,5,17,3,17,29,7,7,4,2,6,12,0,0,4,4,10,10,19,14,9,11,9,12,14,0,0,0,0,2,5,5,5,6,11,25,17,4,26,852.txt
0,0,24,0,7,0,0,18,0,25,18,21,18,25,18,18,18,17,0,16,15,14,14,14,11,14,19,24,17,3,17,29,7,7,0,2,1,1,1,16,4,4,10,10,19,14,9,3,3,3,1,0,5,5,5,3,5,12,6,8,21,16,8,6,6,855.txt
0,0,24,0,7,0,0,18,0,25,18,21,18,25,18,18,12,20,16,16,15,14,14,14,11,14,19,5,17,3,17,29,7,7,0,2,6,0,0,4,4,4,10,10,19,14,9,3,3,3,3,10,3,3,3,18,14,15,14,25,14,4,27,4,4,857.txt
0,0,24,0,7,0,0,3,4,25,18,21,18,5,5,5,5,6,5,16,15,14,14,14,11,14,19,24,17,8,17,29,7,7,0,2,1,1,5,1,4,4,1,1,1,1,1,1,1,1,1,1,1,1,1,1,1,1,1,1,1,1,1,1,1,859.txt
0,0,24,0,7,0,0,18,0,25,18,21,18,25,18,18,18,17,16,16,15,14,14,14,11,14,19,24,17,3,17,29,7,7,0,2,1,1,1,1,4,4,1,1,1,1,1,1,1,1,3,1,1,1,1,1,1,1,1,1,1,1,1,1,1,861.txt
0,0,24,0,7,0,0,18,0,25,18,21,18,25,18,18,18,17,0,16,15,14,14,14,11,16,19,24,0,3,17,0,0,0,0,2,1,1,5,1,4,4,1,1,1,1,1,1,1,1,1,1,1,1,1,1,1,1,1,1,1,1,1,1,1,864.txt
0,0,24,0,7,0,0,18,0,25,18,21,18,25,18,18,22,20,16,16,15,14,14,14,11,14,19,5,17,3,17,29,7,7,0,2,6,0,0,0,30,20,10,10,19,14,9,3,3,3,5,0,7,7,7,2,5,5,5,6,21,16,8,4,6,866.txt
0,0,25,0,0,0,0,18,0,25,18,21,18,25,18,18,12,20,16,3,15,14,14,14,11,14,19,5,17,3,17,8,7,7,0,0,6,11,0,13,30,18,6,6,6,14,9,3,3,3,0,0,3,3,3,0,14,15,14,25,14,4,27,4,4,868.txt
0,0,25,0,0,0,0,18,0,25,18,21,18,25,18,18,18,17,0,16,15,14,14,14,11,16,19,5,0,3,17,0,0,0,0,0,4,0,0,0,4,4,10,10,19,14,11,3,3,3,1,23,2,2,2,3,2,2,2,2,3,3,3,2,3,870.txt
0,0,24,0,7,0,0,18,0,25,18,21,18,25,18,18,18,17,0,16,15,14,14,14,11,14,19,24,17,3,17,29,7,7,0,2,1,1,1,1,4,4,1,1,1,1,1,1,1,1,3,1,1,1,1,1,1,1,1,1,1,1,1,1,1,872.txt
0,0,24,0,7,0,0,18,0,25,18,21,18,25,18,27,12,20,16,16,15,14,14,14,11,14,19,5,17,3,17,29,7,7,0,2,0,0,0,0,6,7,10,10,19,14,9,3,3,3,3,0,5,5,5,0,5,5,5,8,14,4,0,6,4,874.txt
0,0,24,0,7,0,0,18,0,25,18,21,18,25,18,18,18,17,0,16,15,14,14,14,11,14,19,24,17,3,17,29,7,7,0,2,1,1,1,1,4,4,1,1,1,1,1,1,1,1,1,1,1,1,1,1,1,1,1,1,1,1,1,1,1,879.txt
0,0,24,0,7,0,0,18,0,25,18,21,18,25,18,18,18,17,0,16,15,14,14,14,11,14,19,24,17,3,17,29,7,7,0,2,1,1,1,1,4,4,1,1,1,1,1,1,1,1,1,1,1,1,1,1,1,1,1,1,1,1,1,1,1,882.txt
0,0,24,0,7,0,0,18,0,25,18,21,18,25,18,18,23,21,27,16,15,14,14,14,11,14,19,8,17,3,17,29,7,7,0,2,0,0,8,0,6,7,10,10,19,14,11,3,3,3,27,0,5,5,5,7,5,5,5,8,21,16,8,6,6,884.txt
0,0,24,0,7,0,0,18,0,25,18,21,18,25,18,18,18,17,0,16,15,14,14,14,11,14,19,24,17,3,17,29,7,7,0,2,1,1,1,1,4,4,1,1,1,1,1,1,1,1,1,1,1,1,1,1,1,1,1,1,1,1,1,1,1,885.txt
0,0,24,0,7,0,0,18,0,25,18,21,18,25,18,18,18,17,0,16,15,14,14,14,11,14,19,24,17,3,17,29,7,7,0,2,1,1,5,1,4,4,1,1,1,1,1,1,1,1,1,1,1,1,1,1,1,1,1,1,1,1,1,1,1,886.txt
0,0,24,0,7,0,0,18,0,25,18,21,18,25,18,18,18,20,16,16,15,14,14,14,11,14,19,24,17,3,17,29,7,7,0,2,1,1,1,0,4,4,10,10,19,14,9,3,3,3,3,0,3,3,3,0,14,15,14,25,14,4,27,6,4,889.txt
0,0,24,0,7,0,0,18,0,25,18,21,18,25,18,18,18,17,0,16,15,14,14,14,11,14,19,24,17,3,17,30,7,7,0,2,1,1,5,1,4,4,1,1,1,1,1,1,1,1,1,1,1,1,1,1,1,1,1,1,1,1,1,2,1,891.txt
0,0,24,0,7,0,0,18,0,25,18,21,18,25,18,18,12,20,16,16,15,14,14,14,11,14,19,24,17,3,17,29,7,7,0,2,1,1,1,0,4,4,10,10,19,14,9,3,3,3,3,0,3,3,3,0,14,15,14,25,14,4,27,6,4,893.txt
0,0,24,0,7,0,0,18,0,25,18,0,18,25,18,18,12,20,16,16,15,14,14,14,11,14,19,5,17,3,0,30,7,7,0,2,6,0,0,0,4,4,10,10,19,3,3,3,3,3,3,0,3,3,3,0,14,15,14,25,14,4,27,9,4,896.txt
0,0,1,5,7,0,0,18,0,25,18,21,18,25,18,18,12,20,16,16,4,4,4,4,4,1,1,5,1,1,6,5,5,5,7,1,6,2,16,0,10,8,16,16,10,2,2,2,2,2,3,0,3,3,3,0,14,15,14,25,14,4,27,6,4,900.txt
0,0,24,0,7,0,0,18,0,25,18,21,18,25,18,18,18,17,0,16,15,14,14,14,11,14,19,24,17,3,17,29,7,7,0,2,1,1,1,1,4,4,1,1,1,1,1,1,1,1,3,1,1,1,1,1,1,1,1,1,1,1,1,1,1,902.txt
9,2,1,19,2,2,13,4,6,9,26,13,22,11,20,23,1,28,10,9,8,5,5,9,21,27,29,13,16,28,11,18,22,15,30,4,1,1,7,11,21,3,16,16,18,19,18,13,27,17,1,23,6,6,6,3,5,5,5,8,6,6,29,14,13,905.txt
0,0,24,0,7,0,0,18,0,25,18,21,18,25,18,18,18,17,0,16,15,14,14,14,11,14,19,24,17,3,17,29,7,7,0,2,1,1,1,1,4,4,1,1,1,1,1,1,1,1,3,1,1,1,1,1,1,1,1,1,1,1,1,1,1,907.txt
0,0,24,0,7,0,15,18,0,25,18,21,18,25,18,18,18,17,0,16,15,14,14,14,11,14,19,24,17,3,5,29,7,7,0,2,1,1,5,1,4,4,1,1,1,1,1,1,1,1,1,1,1,1,1,1,1,1,1,1,1,1,1,1,1,909.txt
0,0,24,0,7,0,0,18,0,25,18,21,18,25,18,18,12,20,16,16,15,14,14,14,11,14,19,5,17,3,17,29,7,7,0,2,6,0,0,0,4,4,10,10,19,14,9,3,3,3,3,0,3,3,3,0,14,15,14,25,14,4,27,25,4,911.txt
0,0,24,0,7,0,0,18,0,25,18,21,18,25,18,18,18,17,0,16,15,14,14,14,11,14,19,24,17,15,17,29,7,7,0,2,1,1,5,1,4,4,1,1,1,1,1,1,1,1,1,1,1,1,1,1,1,1,1,1,1,1,1,2,1,914.txt
22,2,1,16,16,3,13,1,9,10,23,1,26,1,1,23,1,12,9,21,4,6,6,4,15,10,18,23,11,6,11,14,20,15,30,1,6,2,16,6,11,8,12,13,11,11,26,18,17,21,3,0,3,3,3,0,14,15,14,25,14,4,27,4,4,917.txt
0,2,1,2,7,0,0,18,0,25,18,21,18,25,18,18,18,17,0,16,2,2,2,2,2,2,2,24,2,2,2,2,2,2,2,1,1,1,1,1,3,8,1,1,1,1,1,1,1,1,3,1,1,1,1,1,1,1,1,1,1,1,1,1,1,922.txt
0,0,24,0,7,0,24,23,0,25,18,19,18,25,18,18,18,17,0,16,15,14,14,14,11,14,19,24,17,3,17,29,7,7,0,2,1,1,1,1,4,4,1,1,1,1,1,1,1,1,1,1,1,1,1,1,1,1,1,1,1,1,1,11,1,924.txt
0,0,24,0,7,0,0,18,0,25,18,21,18,25,18,18,18,17,16,16,15,14,14,14,11,14,19,24,17,3,17,29,7,7,0,2,1,1,1,13,4,4,6,6,6,14,9,3,3,3,3,0,3,3,3,0,14,15,14,25,14,4,27,0,4,925.txt
0,0,24,0,7,0,0,18,0,25,18,21,18,0,0,18,12,20,16,16,15,14,14,14,11,14,19,24,17,3,17,30,7,7,0,2,1,1,1,0,4,4,10,10,19,14,9,3,3,3,3,0,3,3,3,0,14,15,14,25,14,4,27,6,4,926.txt
0,0,3,5,0,0,0,18,0,25,18,21,18,25,18,18,12,20,16,16,4,4,4,4,4,1,1,5,1,1,6,5,5,5,7,5,6,2,16,0,10,6,12,13,10,2,2,9,2,10,0,0,3,3,3,8,14,15,14,25,21,16,8,4,6,928.txt
0,0,24,0,7,0,0,18,0,25,18,21,18,25,18,18,12,20,16,16,15,14,14,14,11,14,19,5,17,3,17,29,7,7,0,2,6,0,0,13,4,4,10,10,19,14,9,3,3,3,3,0,3,3,3,0,14,15,14,25,14,4,27,6,4,930.txt
0,0,24,0,7,0,0,18,0,25,18,21,18,25,18,18,18,17,27,16,15,14,14,14,11,14,19,24,17,3,17,29,7,7,0,2,1,1,1,0,4,4,10,10,19,14,9,3,3,3,3,0,7,7,7,0,5,5,5,8,14,4,27,6,4,932.txt
9,2,1,2,2,2,13,9,2,3,26,2,3,3,3,3,3,3,3,4,2,2,2,2,2,2,2,3,2,2,2,2,2,2,2,4,1,1,1,1,3,3,1,1,1,1,1,1,1,1,1,1,1,1,1,1,1,1,1,1,1,1,1,1,1,935.txt
0,0,25,0,0,0,0,18,0,25,18,21,18,25,18,18,12,21,16,16,15,14,14,14,11,14,19,8,17,3,17,29,7,7,0,0,6,0,0,0,30,20,10,10,19,14,9,3,3,3,5,8,5,5,5,2,5,5,5,6,17,14,10,4,6,940.txt
0,0,24,0,7,0,0,18,0,25,18,21,18,25,18,18,18,17,16,16,15,14,14,14,11,14,19,24,17,3,17,29,7,7,0,2,1,1,1,0,4,4,10,10,19,14,9,3,3,3,3,0,3,3,3,0,14,15,14,25,14,4,27,6,4,942.txt
22,2,1,16,16,13,13,29,9,10,23,1,17,16,1,25,26,27,9,21,22,29,30,25,8,10,14,13,12,13,12,28,18,16,22,17,6,7,9,26,7,8,26,21,7,29,20,17,18,30,3,21,16,16,21,11,9,26,12,16,14,4,27,29,4,944.txt
0,0,24,0,7,0,0,18,0,25,18,21,18,25,18,18,18,17,0,16,15,14,14,14,11,14,19,24,17,3,17,29,7,7,0,2,1,1,1,1,4,4,1,1,1,1,1,1,1,1,3,1,1,1,1,1,1,1,1,1,1,1,1,1,1,946.txt
0,0,24,0,7,0,0,18,0,25,18,21,18,25,18,18,18,17,0,16,15,14,14,14,11,14,19,24,17,3,17,29,7,7,0,2,1,1,1,1,4,4,1,1,1,1,1,1,1,1,3,1,1,1,1,1,1,1,1,1,1,1,1,0,1,949.txt
0,0,24,0,7,0,0,18,0,25,18,21,18,25,18,18,18,17,0,16,15,14,14,14,11,14,19,24,17,3,17,29,7,7,0,2,1,1,5,13,4,4,10,10,19,14,11,3,3,3,1,10,2,2,2,3,2,2,2,2,3,3,3,2,3,951.txt
0,0,24,0,7,0,0,18,0,25,18,21,18,25,18,18,12,20,16,16,15,14,14,14,11,14,19,5,17,3,17,29,7,7,0,2,6,0,0,0,4,4,10,10,19,14,9,15,13,16,3,0,3,3,3,0,14,15,14,25,14,4,27,4,4,954.txt
0,0,25,0,0,0,0,18,0,25,18,21,18,25,18,18,18,17,0,16,15,14,14,14,11,14,19,24,17,3,17,29,7,7,0,0,1,1,1,1,30,20,1,1,1,1,1,1,1,1,1,1,1,1,1,1,1,1,1,1,1,1,1,2,1,956.txt
0,0,1,2,7,0,15,18,0,25,18,21,18,25,18,18,18,17,0,16,2,2,2,2,2,2,2,24,2,2,2,2,2,2,2,1,1,1,1,1,3,8,1,1,1,1,1,1,1,1,3,1,1,1,1,1,1,1,1,1,1,1,1,1,1,959.txt
0,0,24,0,7,0,0,18,0,25,18,21,18,25,18,18,18,17,0,16,15,14,14,14,11,14,19,24,17,3,17,29,7,7,0,2,1,1,1,1,4,4,1,1,1,1,1,1,1,1,1,1,1,1,1,1,1,1,1,1,1,1,1,1,1,961.txt
0,0,24,0,7,0,0,18,0,25,18,21,18,25,18,18,18,17,0,16,15,14,14,14,11,14,19,24,17,3,17,29,7,7,0,2,1,1,1,1,4,4,1,1,1,1,1,1,1,1,3,1,1,1,1,1,1,1,1,1,1,1,1,1,1,962.txt
0,0,24,0,7,0,0,18,0,25,18,21,18,25,18,18,12,17,18,16,15,14,14,14,11,14,19,24,17,3,17,30,7,7,0,2,1,1,1,0,4,4,10,10,19,14,9,3,3,3,3,0,3,3,3,0,14,15,14,25,14,4,27,6,4,964.txt
0,0,24,0,7,0,0,18,0,25,18,21,18,25,18,18,18,17,16,16,15,14,14,14,11,14,19,24,17,3,17,29,7,7,0,2,1,1,1,0,4,4,10,10,19,14,9,3,3,3,3,0,3,3,3,0,14,15,14,25,14,4,27,6,4,966.txt
0,0,24,0,7,0,0,18,0,25,18,21,18,25,18,18,18,17,16,16,15,14,14,14,11,14,19,24,17,3,17,29,7,7,0,2,1,1,1,13,4,4,10,10,19,16,9,3,3,3,3,0,3,3,3,0,14,15,14,25,14,4,27,1,4,968.txt
0,0,24,0,7,0,0,18,0,25,18,21,18,25,18,18,18,17,0,16,15,14,14,14,11,14,19,24,17,3,17,29,7,7,0,2,1,1,5,1,4,4,1,1,1,1,1,1,1,1,1,1,1,1,1,1,1,1,1,1,1,1,1,1,1,970.txt
0,0,24,0,7,0,0,18,0,25,18,21,18,25,18,18,18,17,0,16,15,14,14,14,11,14,19,24,17,3,17,30,7,7,0,2,1,1,5,1,4,4,1,1,1,1,1,1,1,1,1,1,1,1,1,1,1,1,1,1,1,1,1,1,1,974.txt
0,0,24,0,7,0,0,18,0,25,18,21,18,25,18,18,18,17,0,16,15,14,14,14,11,14,19,24,17,3,17,29,7,7,0,2,1,1,1,1,4,4,1,1,1,1,1,1,1,1,3,1,1,1,1,1,1,1,1,1,1,1,1,1,1,975.txt
0,0,24,0,7,0,0,18,0,25,18,21,18,25,18,18,18,17,27,16,15,14,14,14,11,14,19,24,17,3,17,29,7,7,0,2,1,1,1,9,4,4,10,10,19,14,9,3,3,3,3,10,9,9,28,8,5,5,5,8,14,4,27,6,4,979.txt
0,0,24,0,7,0,15,18,0,25,18,7,18,25,18,18,18,17,18,16,15,14,14,14,11,16,19,24,19,3,17,10,9,9,0,2,1,1,1,0,4,4,10,10,19,14,9,3,3,3,7,0,0,0,0,2,5,12,13,8,24,22,16,19,18,981.txt
0,0,24,0,7,0,0,18,0,25,18,21,18,25,18,18,12,17,16,16,15,14,14,14,11,14,19,24,17,3,17,29,7,7,0,2,1,1,1,13,4,4,10,10,19,14,9,3,3,3,3,0,3,3,3,0,14,15,14,25,14,4,27,0,4,987.txt
0,0,24,0,7,0,0,18,0,25,18,21,18,25,18,18,18,17,27,16,15,14,14,14,11,16,19,24,30,3,17,24,8,30,0,2,1,1,7,0,4,4,10,10,19,14,11,3,3,3,23,18,6,6,6,2,5,5,5,8,21,16,8,6,6,989.txt
22,2,1,16,16,3,13,1,9,10,23,1,26,1,1,3,3,3,9,21,1,1,1,1,1,10,17,13,23,6,1,1,1,1,1,1,6,7,9,13,10,8,11,12,10,15,26,7,17,8,3,3,3,3,3,0,14,15,14,25,14,4,27,6,4,994.txt
0,0,24,0,7,0,0,18,0,25,18,21,18,25,18,18,18,17,0,16,15,14,14,14,11,14,19,24,17,3,17,29,7,7,0,2,1,1,1,1,4,4,1,1,1,1,1,1,1,1,1,1,1,1,1,1,1,1,1,1,1,1,1,1,1,996.txt
0,0,24,0,7,0,0,18,0,25,18,21,18,25,18,18,18,17,0,16,15,14,14,14,11,14,19,24,17,3,17,29,7,7,0,2,1,1,1,1,4,4,1,1,1,1,1,1,1,1,1,1,1,1,1,1,1,1,1,1,1,1,1,6,1,998.txt
0,0,24,0,7,0,0,18,0,25,18,21,18,25,18,18,18,17,0,16,15,14,14,14,11,14,19,24,17,3,17,29,7,7,0,2,1,1,1,1,4,4,1,1,1,1,1,1,1,1,1,1,1,1,1,1,1,1,1,1,1,1,1,1,1,1002.txt
0,0,24,28,7,0,0,18,0,25,18,21,18,25,18,18,18,17,0,7,15,14,14,14,11,14,19,24,17,3,19,29,7,7,0,2,1,1,5,1,4,4,1,1,1,1,1,1,1,1,1,1,1,1,1,1,1,1,1,1,1,1,1,2,1,1005.txt
0,0,24,0,7,0,0,18,0,25,18,21,18,25,18,18,18,17,0,16,15,14,14,14,11,14,19,24,17,15,17,29,7,7,0,2,1,1,1,1,4,4,1,1,1,1,1,1,1,1,3,1,1,1,1,1,1,1,1,1,1,1,1,1,1,1008.txt
0,0,24,0,7,0,0,18,0,25,18,21,18,25,18,18,18,17,0,16,15,14,14,14,11,14,19,24,17,3,17,29,7,7,0,2,1,1,1,13,4,4,10,10,19,14,9,3,3,3,3,0,6,6,6,8,19,28,30,16,21,16,8,0,6,1010.txt
0,0,24,0,7,0,0,18,0,25,18,21,18,25,18,18,18,17,0,16,15,14,14,14,11,14,19,24,17,3,17,30,7,7,0,2,1,1,1,1,4,4,1,1,1,1,1,1,1,1,3,1,1,1,1,1,1,1,1,1,1,1,1,1,1,1013.txt
0,0,24,0,7,0,0,18,0,25,18,21,18,25,18,18,18,17,16,16,15,14,14,14,11,14,19,24,17,3,17,29,7,7,0,2,1,1,1,1,4,4,1,1,1,1,1,1,1,1,3,1,1,1,1,1,1,1,1,1,1,1,1,1,1,1015.txt
0,0,24,0,7,0,0,18,0,25,18,21,18,25,18,18,18,17,0,16,15,14,14,14,11,14,19,24,17,3,17,30,7,7,0,2,1,1,1,1,4,4,1,1,1,1,1,1,1,1,1,1,1,1,1,1,1,1,1,1,1,1,1,1,1,1018.txt
22,2,23,29,6,23,2,4,6,9,7,13,5,11,9,23,30,14,10,9,8,19,18,11,15,13,18,10,16,21,28,16,18,27,11,6,19,8,11,27,21,17,16,16,21,9,18,30,27,9,5,30,6,6,6,2,5,5,5,8,17,14,8,6,8,1020.txt
0,0,24,0,7,0,0,18,0,25,18,21,18,25,18,18,18,20,16,16,15,14,14,14,11,16,19,5,19,3,17,10,9,9,0,2,28,16,4,0,4,4,10,10,19,14,11,3,3,3,23,21,6,6,6,7,5,5,5,8,21,16,29,6,6,1022.txt
0,0,24,0,7,0,0,18,0,25,18,21,18,25,18,18,23,17,16,16,15,14,14,14,11,14,19,24,17,3,17,29,7,7,0,2,1,1,7,0,4,4,10,10,19,14,11,3,3,3,3,24,3,3,3,24,14,15,14,25,14,4,27,6,4,1025.txt
0,0,24,0,7,0,0,18,0,25,18,21,18,25,18,18,18,17,0,16,15,14,14,14,11,14,19,24,17,3,17,29,7,7,0,2,1,1,10,1,4,4,1,1,1,1,1,1,1,1,3,1,1,1,1,1,1,1,1,1,1,1,1,6,1,1027.txt
0,0,25,0,0,0,12,23,0,25,18,5,18,25,18,18,18,21,0,16,15,14,14,14,11,16,19,6,0,3,17,0,0,0,0,0,4,12,0,14,30,20,10,10,19,14,11,3,3,3,1,23,2,2,2,15,2,2,2,2,3,3,3,2,3,1030.txt
0,0,24,0,7,0,0,18,0,25,18,21,18,25,18,18,18,17,0,16,15,14,14,14,11,14,19,24,17,3,17,30,7,7,0,2,1,1,1,1,4,4,1,1,1,1,1,1,1,1,1,1,1,1,1,1,1,1,1,1,1,1,1,1,1,1036.txt
0,0,24,0,7,0,0,18,0,25,18,21,18,25,18,18,18,17,0,16,15,14,14,14,11,14,19,24,17,3,17,29,7,7,0,2,1,1,5,1,4,4,1,1,1,1,1,1,1,1,1,1,1,1,1,1,1,1,1,1,1,1,1,2,1,1041.txt
0,0,24,0,7,0,0,18,0,25,18,21,18,25,18,18,12,20,16,16,15,14,14,14,11,14,19,5,17,3,17,30,7,7,0,2,6,11,0,26,4,4,10,10,19,3,3,3,3,3,3,24,3,3,3,0,14,15,14,25,14,4,27,9,4,1043.txt
0,0,24,0,7,0,0,18,0,25,18,21,18,25,18,18,18,17,0,16,15,14,14,14,11,14,19,24,17,3,17,29,7,7,0,2,1,1,5,1,4,4,1,1,1,1,1,1,1,1,1,1,1,1,1,1,1,1,1,1,1,1,1,2,1,1045.txt
0,0,24,0,7,0,0,18,0,25,18,21,18,25,18,18,18,17,0,16,15,14,14,14,11,14,19,24,17,3,17,29,7,7,0,2,1,1,1,1,4,4,1,1,1,1,1,1,1,1,3,1,1,1,1,1,1,1,1,1,1,1,1,1,1,1046.txt
0,0,25,0,0,0,15,18,0,25,18,7,18,25,18,18,22,20,16,16,15,14,14,14,11,14,19,5,17,3,17,29,7,7,0,0,6,12,0,13,30,20,10,10,19,14,9,3,3,3,7,0,26,28,28,8,9,26,25,6,24,22,16,24,18,1048.txt
0,0,24,0,7,0,0,18,0,25,18,21,18,25,18,18,18,17,16,16,15,14,14,14,11,14,19,24,17,3,17,30,7,7,0,2,1,1,1,1,4,4,1,1,1,1,1,1,1,1,3,1,1,1,1,1,1,1,1,1,1,1,1,1,1,1051.txt
0,0,24,0,7,0,0,18,0,25,18,21,18,25,18,18,18,17,0,16,15,14,14,14,11,14,19,24,17,3,17,29,7,7,0,2,1,1,1,1,4,4,1,1,1,1,1,1,1,1,3,1,1,1,1,1,1,1,1,1,1,1,1,1,1,1054.txt
0,0,24,0,7,0,15,18,0,25,18,21,18,25,18,18,12,17,16,16,15,14,14,14,11,14,19,24,17,3,27,29,7,7,6,8,1,1,1,0,4,4,10,10,19,14,9,3,3,3,9,0,11,11,11,0,15,16,15,23,14,4,27,29,4,1057.txt
0,0,24,0,7,0,0,18,0,25,18,21,18,25,18,18,18,17,27,16,15,14,14,14,11,14,19,24,17,3,17,30,7,7,0,2,1,1,1,1,4,4,1,1,1,1,1,1,1,1,16,1,1,1,1,1,1,1,1,1,1,1,1,6,1,1059.txt
0,0,24,0,7,0,0,18,0,25,18,21,18,25,18,18,18,17,0,16,15,14,14,14,11,14,19,24,17,3,17,29,7,7,0,2,1,1,5,1,4,4,1,1,1,1,1,1,1,1,1,1,1,1,1,1,1,1,1,1,1,1,1,1,1,1060.txt
0,0,24,0,7,0,0,18,0,25,18,21,18,25,18,18,18,17,16,16,15,14,14,14,11,14,19,24,17,3,17,29,7,7,0,2,1,1,1,0,4,4,10,10,19,14,9,3,3,3,3,0,3,3,3,0,14,15,14,25,14,4,0,1,4,1064.txt
0,0,24,0,7,0,0,18,0,25,18,21,18,25,18,18,18,17,0,16,15,14,14,14,11,14,19,24,17,3,17,29,7,7,0,2,1,1,1,1,4,4,1,1,1,1,1,1,1,1,3,1,1,1,1,1,1,1,1,1,1,1,1,1,1,1069.txt
0,0,24,0,7,0,0,18,0,25,18,21,18,25,18,18,18,17,0,16,15,14,14,14,11,16,19,24,19,15,17,10,9,9,0,2,1,1,5,1,4,4,1,1,1,1,1,1,1,1,1,1,1,1,1,1,1,1,1,1,1,1,1,1,1,1071.txt
0,0,24,0,7,0,0,18,0,25,18,21,18,25,18,18,18,17,0,16,15,14,14,14,11,14,19,24,17,3,17,29,7,7,0,2,1,1,1,1,4,4,1,1,1,1,1,1,1,1,1,1,1,1,1,1,1,1,1,1,1,1,1,1,1,1073.txt
0,0,25,0,0,0,12,23,0,25,18,5,18,25,18,18,23,17,0,7,15,14,14,14,11,16,19,8,19,3,27,10,9,9,0,0,4,12,0,14,30,20,10,10,19,14,11,3,3,3,1,23,2,2,2,3,2,2,2,2,3,3,3,2,3,1075.txt
0,0,24,0,7,0,0,18,0,25,18,0,18,25,18,18,18,17,0,16,15,14,14,14,11,14,19,24,17,3,0,29,7,7,0,2,1,1,1,1,4,4,1,1,1,1,1,1,1,1,1,1,1,1,1,1,1,1,1,1,1,1,1,1,1,1076.txt
0,0,24,0,7,0,0,18,0,25,18,21,18,0,0,18,12,17,16,16,15,14,14,14,11,14,19,24,17,3,17,29,7,7,0,2,1,1,1,0,4,4,10,10,19,14,9,3,3,3,3,0,3,3,3,0,14,15,14,25,14,4,27,6,4,1078.txt
0,0,24,0,7,0,0,18,0,25,18,21,18,25,18,18,18,17,0,16,15,14,14,14,11,14,19,24,17,3,17,29,7,7,0,2,1,1,1,1,4,4,1,1,1,1,1,1,1,1,1,1,1,1,1,1,1,1,1,1,1,1,1,1,1,1080.txt
0,0,24,0,7,0,0,18,0,25,18,21,18,25,18,18,18,17,0,16,15,14,14,14,11,16,19,24,19,3,17,10,9,9,0,2,1,1,5,1,4,4,1,1,1,1,1,1,1,1,1,1,1,1,1,1,1,1,1,1,1,1,1,2,1,1082.txt
0,0,24,0,7,0,0,18,0,25,18,21,18,25,18,18,18,17,0,16,15,14,14,14,11,16,19,24,0,15,17,0,0,0,0,2,1,1,5,1,4,4,1,1,1,1,1,1,1,1,1,1,1,1,1,1,1,1,1,1,1,1,1,2,1,1084.txt
0,0,24,0,7,0,0,18,0,25,18,21,18,25,18,18,18,17,0,16,15,14,14,14,11,14,19,24,17,3,17,29,7,7,0,2,1,1,1,1,4,4,1,1,1,1,1,1,1,1,1,1,1,1,1,1,1,1,1,1,1,1,1,1,1,1086.txt
0,0,25,0,0,0,0,18,0,25,18,21,18,25,18,18,18,20,0,16,15,14,14,14,11,16,19,24,0,3,17,0,0,0,0,0,13,1,5,1,30,20,1,1,27,1,30,28,1,26,1,27,1,24,23,19,23,20,22,28,22,1,1,2,1,1088.txt
0,2,1,2,7,0,0,9,2,25,18,21,18,25,18,18,18,17,0,16,2,2,2,2,2,2,2,3,2,2,2,2,2,2,2,4,1,1,1,1,3,3,1,1,1,1,1,1,1,1,1,1,1,1,1,1,1,1,1,1,1,1,1,1,1,1090.txt
0,0,24,0,7,0,0,18,0,0,0,21,0,0,0,0,0,0,16,0,0,16,0,17,18,14,0,5,17,3,17,29,7,7,0,2,6,0,0,0,0,0,10,10,19,14,9,3,3,3,3,0,3,3,3,0,14,15,14,25,14,4,27,4,4,1093.txt
0,0,24,0,7,0,0,18,0,25,18,21,18,25,18,18,18,17,0,16,15,14,14,14,11,14,19,24,17,3,17,29,7,7,0,2,1,1,1,1,4,4,1,1,1,1,1,1,1,1,3,1,1,1,1,1,1,1,1,1,1,1,1,1,1,1094.txt
0,0,24,0,7,0,0,18,0,25,18,21,18,25,18,18,22,21,16,16,15,14,14,14,11,16,19,8,19,3,17,10,9,9,0,2,6,12,0,9,30,18,10,10,19,3,3,3,3,3,14,30,6,6,6,2,5,5,5,6,17,14,8,4,8,1096.txt
0,0,1,2,7,0,0,18,0,25,18,21,18,25,18,18,12,17,16,16,2,2,2,2,2,2,2,24,2,2,2,2,2,2,2,1,1,1,1,1,3,8,1,1,1,1,1,1,1,1,3,1,1,1,1,1,1,1,1,1,1,1,1,1,1,1101.txt
0,0,24,0,7,0,0,18,0,25,18,21,18,25,18,18,18,17,0,16,15,14,14,14,11,14,19,24,17,3,17,29,7,7,0,2,1,1,1,1,4,4,1,1,1,1,1,1,1,1,3,1,1,1,1,1,1,1,1,1,1,1,1,1,1,1105.txt
0,0,24,0,7,0,0,18,0,25,18,21,18,25,18,18,18,17,0,16,15,14,14,14,11,16,19,24,19,3,17,10,9,9,0,2,1,1,1,1,4,4,1,1,1,1,1,1,1,1,1,1,1,1,1,1,1,1,1,1,1,1,1,1,1,1106.txt
0,14,1,29,2,0,0,18,0,25,18,21,18,25,18,18,18,22,5,16,8,7,7,11,26,13,22,24,26,21,28,26,22,27,11,6,1,1,5,27,21,17,17,8,21,23,19,8,27,9,5,23,7,7,27,30,12,12,6,9,6,6,8,6,6,1108.txt
0,0,24,28,7,0,0,18,0,25,18,21,18,25,18,18,18,17,0,16,15,14,14,14,11,14,19,24,17,15,19,30,7,7,0,11,1,1,1,1,4,4,1,1,1,1,1,1,1,1,12,1,1,1,1,1,1,1,1,1,1,1,1,1,1,1109.txt
0,0,24,0,7,0,0,18,0,25,18,21,18,25,18,18,18,17,0,16,15,14,14,14,11,14,19,24,17,3,17,29,7,7,0,2,1,1,1,1,4,4,1,1,1,1,1,1,1,1,3,1,1,1,1,1,1,1,1,1,1,1,1,1,1,1114.txt
0,0,24,0,7,0,0,18,0,18,15,21,13,25,24,18,12,20,16,12,12,12,12,12,9,14,7,5,17,3,17,30,7,7,4,2,6,12,0,0,4,4,10,10,19,14,9,11,9,12,3,0,3,3,3,2,14,15,14,25,30,25,17,10,30,1117.txt
0,0,24,0,7,0,0,18,0,25,18,21,18,25,18,18,18,17,0,16,15,14,14,14,11,16,19,24,0,3,17,0,0,0,0,2,1,1,1,1,4,4,1,1,1,1,1,1,1,1,1,1,1,1,1,1,1,1,1,1,1,1,1,1,1,1118.txt
0,0,24,0,7,0,0,18,0,25,18,21,18,25,18,18,18,17,27,16,15,14,14,14,11,14,19,24,17,3,17,29,7,7,0,11,1,1,1,4,4,4,10,10,19,14,9,3,3,3,12,7,3,3,3,4,14,15,14,25,14,4,27,6,4,1121.txt
0,0,25,0,0,0,0,18,0,25,18,21,18,25,18,18,12,20,16,16,15,14,14,14,11,14,19,5,17,0,8,29,7,7,0,0,6,0,0,0,30,20,6,6,25,17,6,22,6,6,3,3,3,3,3,0,14,15,14,25,14,4,27,3,4,1122.txt
0,0,24,0,7,0,0,18,0,25,18,21,18,25,18,18,18,17,0,16,15,14,14,14,11,16,19,24,0,3,17,0,0,0,0,2,1,1,5,1,4,4,1,1,1,1,1,1,1,1,1,1,1,1,1,1,1,1,1,1,1,1,1,1,1,1124.txt
0,0,24,0,7,0,0,18,0,25,18,21,18,25,18,18,18,17,0,16,15,14,14,14,11,14,19,24,17,3,17,29,7,7,0,2,1,1,5,1,4,4,1,1,1,1,1,1,1,1,1,1,1,1,1,1,1,1,1,1,1,1,1,2,1,1126.txt
0,0,24,0,7,0,0,18,0,25,18,7,18,25,18,18,18,17,0,16,15,14,14,14,11,16,19,24,19,3,17,10,9,9,0,2,1,1,7,9,4,4,10,10,19,14,12,3,3,3,1,18,2,2,2,3,2,2,2,2,3,3,3,2,3,1128.txt
0,0,24,0,7,0,0,18,0,25,18,21,18,25,18,18,18,17,0,16,15,14,14,14,11,14,19,24,17,3,17,30,7,7,0,2,1,1,1,1,4,4,1,1,1,1,1,1,1,1,1,1,1,1,1,1,1,1,1,1,1,1,1,1,1,1130.txt
0,0,24,0,7,0,0,18,0,25,18,21,18,25,18,18,18,17,27,16,15,14,14,14,11,14,19,24,17,3,17,29,7,7,0,2,1,1,1,0,4,4,10,10,19,14,9,3,3,3,6,0,6,6,6,2,24,18,19,8,21,16,8,6,6,1135.txt
0,0,24,0,7,0,0,18,0,25,18,21,18,25,18,18,18,17,27,16,15,14,14,14,11,14,19,24,17,3,17,29,7,7,0,2,1,1,1,13,4,4,10,10,19,14,9,3,3,3,1,0,5,5,5,3,12,12,6,9,21,16,8,5,6,1136.txt
0,0,24,0,7,0,0,18,0,25,18,21,18,25,18,18,12,20,16,16,15,14,14,14,11,14,19,5,17,3,17,29,7,7,0,2,16,11,0,4,4,4,10,10,19,14,9,3,3,3,21,10,5,5,5,8,24,18,19,0,17,14,8,25,8,1137.txt
0,0,24,0,7,0,0,18,0,25,18,21,18,25,18,18,18,17,27,16,15,14,14,14,11,14,19,24,17,3,17,29,7,7,0,2,1,1,1,1,4,4,1,1,1,1,1,1,1,1,3,1,1,1,1,1,1,1,1,1,1,1,1,1,1,1139.txt
0,0,1,29,7,0,0,18,0,25,18,21,18,25,18,18,12,24,16,16,8,6,6,11,7,8,18,7,14,10,12,16,16,16,21,6,6,30,18,16,10,25,23,20,10,8,26,18,17,21,3,4,6,6,6,8,21,28,28,20,21,16,8,25,6,1141.txt
0,0,24,0,7,0,0,18,0,25,18,21,18,25,18,18,18,21,28,16,15,14,14,14,11,14,19,24,17,3,17,30,7,7,0,2,1,1,1,9,6,7,10,10,19,3,3,3,3,3,5,30,6,6,6,10,28,17,6,13,20,17,8,19,17,1143.txt
0,0,24,0,7,0,0,18,0,25,18,21,18,25,18,18,18,17,0,16,15,14,14,14,11,14,19,24,17,3,17,29,7,7,0,2,1,1,5,1,4,4,1,1,1,1,1,1,1,1,1,1,1,1,1,1,1,1,1,1,1,1,1,1,1,1147.txt
0,0,24,0,7,0,0,18,0,25,18,21,18,25,18,18,18,17,0,16,15,14,14,14,11,14,19,24,17,3,17,29,7,7,0,2,1,1,5,1,4,4,1,1,1,1,1,1,1,1,1,1,1,1,1,1,1,1,1,1,1,1,1,2,1,1149.txt
0,0,24,0,7,0,15,18,0,25,18,21,18,25,18,18,18,17,18,16,15,14,14,14,11,16,19,24,19,3,27,10,9,9,0,2,11,12,0,0,30,18,10,10,19,14,9,3,3,3,7,0,6,6,6,8,19,8,9,16,21,16,29,3,6,1151.txt
0,0,24,0,7,0,0,18,0,25,18,21,18,25,18,18,18,17,0,16,15,14,14,14,11,14,19,24,17,3,17,29,7,7,0,2,1,1,1,1,4,4,1,1,1,1,1,1,1,1,1,1,1,1,1,1,1,1,1,1,1,1,1,1,1,1152.txt
0,0,24,0,7,0,0,18,0,25,18,21,18,25,18,18,18,17,16,16,15,14,14,14,11,14,19,24,17,3,17,29,7,7,0,2,1,1,1,1,4,4,1,1,1,1,1,1,1,1,3,1,1,1,1,1,1,1,1,1,1,1,1,1,1,1156.txt
0,0,24,0,7,0,0,18,0,25,18,21,18,25,18,18,18,17,0,16,15,14,14,14,11,14,19,24,17,3,17,29,7,7,0,2,1,1,5,1,4,4,1,1,1,1,1,1,1,1,1,1,1,1,1,1,1,1,1,1,1,1,1,6,1,1158.txt
0,0,24,0,7,0,0,18,0,25,18,21,18,25,18,18,18,17,16,16,15,14,14,14,11,14,19,24,17,3,17,29,7,7,0,2,1,1,1,1,4,4,1,1,1,1,1,1,1,1,3,1,1,1,1,1,1,1,1,1,1,1,1,1,1,1161.txt
0,0,24,0,7,0,0,18,0,25,18,21,18,25,18,18,18,17,0,16,15,14,14,14,11,14,19,24,17,3,17,29,7,7,0,2,1,1,1,1,4,4,1,1,1,1,1,1,1,1,1,1,1,1,1,1,1,1,1,1,1,1,1,1,1,1166.txt
0,0,24,0,7,0,0,18,0,25,18,21,18,26,18,18,18,17,16,16,15,14,14,14,11,14,19,24,17,15,17,29,7,7,0,2,1,1,1,13,4,4,10,10,19,5,6,5,5,6,3,0,3,3,3,0,14,15,14,25,14,0,27,6,0,1168.txt
22,2,7,16,16,13,18,4,1,10,20,1,17,16,1,25,26,12,1,1,27,9,25,21,14,5,6,20,5,7,12,28,20,16,28,4,4,2,16,21,7,3,11,12,29,7,8,7,8,8,1,12,2,2,2,21,2,2,2,2,4,4,4,2,4,1169.txt
0,0,26,0,10,0,0,18,0,18,15,9,13,25,26,18,22,20,16,28,12,12,12,12,9,14,7,5,17,3,17,8,7,7,4,0,6,12,0,0,4,4,4,4,4,3,3,11,9,12,3,3,3,3,3,0,14,15,14,25,14,4,27,4,4,1171.txt
0,0,24,0,7,0,0,18,0,25,18,21,18,25,18,18,18,17,0,16,15,14,14,14,11,16,19,24,0,15,17,0,0,0,0,2,1,1,6,13,4,4,5,24,25,17,0,22,6,0,27,5,22,23,13,7,19,10,11,14,11,26,15,6,30,1175.txt
0,0,24,0,7,0,0,18,0,25,18,21,18,25,18,18,18,17,27,16,15,14,14,14,11,14,19,24,17,3,17,29,7,7,0,2,1,1,1,0,4,4,3,3,3,14,9,3,3,3,3,0,3,3,3,8,14,15,14,25,14,4,27,6,4,1177.txt
0,14,7,2,7,0,0,9,2,25,18,21,18,25,18,18,18,17,0,16,2,2,2,2,2,2,2,3,2,2,2,2,2,2,2,4,1,1,1,1,3,3,1,1,1,1,1,1,1,1,1,1,1,1,1,1,1,1,1,1,1,1,1,1,1,1179.txt
0,0,24,0,7,0,0,18,0,25,18,21,18,25,18,18,18,17,0,16,15,14,14,14,11,16,19,24,19,3,17,10,9,9,0,2,1,1,5,1,4,4,1,1,1,1,1,1,1,1,1,1,1,1,1,1,1,1,1,1,1,1,1,2,1,1183.txt
0,0,24,0,7,0,0,3,4,25,18,21,18,4,4,5,4,4,5,16,15,14,14,14,11,14,19,5,17,3,17,30,7,7,0,2,6,0,0,7,4,4,10,10,19,3,3,3,3,3,3,0,3,3,3,0,14,15,14,25,14,4,27,6,4,1184.txt
0,0,24,0,7,0,0,12,4,25,18,21,18,4,4,5,4,4,5,16,15,14,14,14,11,14,19,24,17,3,17,29,7,7,0,2,1,1,1,1,4,4,1,1,1,1,1,1,1,1,3,1,1,1,1,1,1,1,1,1,1,1,1,1,1,1190.txt
0,2,1,16,16,0,0,18,0,25,18,21,18,25,18,18,12,20,16,16,8,6,6,11,15,10,18,5,23,6,12,14,18,16,15,1,6,18,24,0,11,8,16,16,11,20,18,8,18,17,3,30,3,3,3,0,14,15,14,25,14,4,27,6,4,1192.txt
0,0,24,0,7,0,0,18,0,25,18,21,18,25,18,18,18,17,0,16,15,14,14,14,11,14,19,24,17,3,17,29,7,7,0,2,1,1,1,1,4,4,1,1,1,1,1,1,1,1,1,1,1,1,1,1,1,1,1,1,1,1,1,1,1,1194.txt
0,0,24,0,7,0,0,18,0,25,18,21,18,25,18,18,12,20,16,16,15,14,14,14,11,14,19,5,17,3,17,29,7,7,0,2,6,11,0,0,30,20,10,10,19,14,9,3,3,3,0,0,3,3,3,0,14,15,14,25,14,4,27,4,4,1196.txt
0,0,24,0,7,0,0,18,0,25,18,21,18,25,18,18,22,20,16,16,15,14,14,14,11,14,19,5,17,3,17,29,7,7,0,2,6,11,0,4,4,4,10,10,19,14,9,3,3,3,3,16,3,3,3,4,14,15,14,25,14,4,27,4,4,1197.txt
0,0,25,0,0,0,15,18,0,25,18,21,18,25,18,18,18,21,0,16,15,14,14,14,11,14,19,24,17,3,4,29,7,7,0,0,1,1,5,0,4,4,10,10,19,12,12,15,13,16,1,23,2,2,2,3,2,2,2,2,3,3,3,2,3,1199.txt
0,0,24,0,7,0,0,18,0,25,18,21,18,25,18,18,18,21,28,16,15,14,14,14,11,16,19,24,19,3,17,10,9,9,0,2,1,1,1,1,23,15,1,1,1,1,1,1,1,1,1,1,1,1,1,1,1,1,1,1,1,1,1,11,1,1201.txt
0,0,24,0,7,0,15,18,0,25,18,21,18,25,18,18,18,17,16,16,15,14,14,14,11,7,19,24,7,3,17,7,10,10,0,2,1,1,1,9,14,11,10,10,19,14,9,3,3,3,7,10,26,28,14,8,19,28,27,16,24,24,24,6,18,1203.txt
0,0,25,0,0,0,0,18,0,25,18,21,18,25,18,18,18,21,16,16,15,14,14,14,11,14,19,24,17,3,17,29,7,7,0,0,1,1,5,0,4,4,10,10,19,12,11,3,3,3,1,23,2,2,2,3,2,2,2,2,14,4,27,2,4,1205.txt
9,2,7,19,7,0,12,4,2,25,18,5,18,25,18,18,18,17,0,16,2,2,2,2,2,2,2,3,2,2,2,2,2,2,2,4,1,1,5,1,3,3,1,1,1,1,1,1,1,1,15,1,1,1,1,1,1,1,1,1,1,1,1,2,1,1207.txt
0,0,24,0,7,0,0,18,0,25,18,21,18,25,18,18,18,17,0,16,15,14,14,14,11,14,19,24,17,3,17,29,7,7,0,2,1,1,1,1,4,4,1,1,1,1,1,1,1,1,1,1,1,1,1,1,1,1,1,1,1,1,1,1,1,1211.txt
0,0,24,0,7,0,0,18,0,25,18,21,18,25,18,18,18,17,0,16,15,14,14,14,11,14,19,24,17,5,17,29,7,7,0,2,1,1,1,1,4,4,1,1,1,1,1,1,1,1,1,1,1,1,1,1,1,1,1,1,1,1,1,1,1,1214.txt
0,0,24,0,7,0,15,18,0,25,18,21,18,25,18,18,18,17,0,16,15,14,14,14,11,14,19,24,17,15,27,29,7,7,0,2,1,1,5,1,4,4,1,1,1,1,1,1,1,1,1,1,1,1,1,1,1,1,1,1,1,1,1,2,1,1216.txt
0,0,24,0,7,0,0,18,0,25,18,21,18,25,18,18,12,20,16,16,15,14,14,14,11,16,19,5,0,3,17,0,0,0,0,2,6,0,0,0,4,4,10,10,19,14,9,3,3,3,3,0,3,3,3,0,14,15,14,25,14,4,27,25,4,1217.txt
0,0,24,0,7,0,0,18,0,25,18,21,18,25,18,18,18,17,0,16,15,14,14,14,11,14,19,24,17,3,17,29,7,7,0,2,1,1,1,1,4,4,1,1,1,1,1,1,1,1,1,1,1,1,1,1,1,1,1,1,1,1,1,1,1,1219.txt
0,0,4,0,7,0,0,18,0,25,18,21,18,25,18,18,12,17,16,16,15,14,14,14,11,14,19,24,17,3,17,29,7,7,0,2,1,1,1,0,4,4,10,10,19,14,9,3,3,3,3,0,3,3,3,0,14,15,14,25,14,4,0,6,4,1221.txt
0,2,1,5,6,16,0,4,6,9,10,13,5,29,9,9,15,11,10,9,8,22,30,11,7,21,18,18,16,24,6,26,5,19,11,25,15,21,21,16,21,28,16,16,21,28,19,8,18,13,27,30,7,7,27,2,5,5,5,8,17,14,8,6,8,1225.txt
0,0,24,0,7,0,0,18,0,25,18,21,18,25,18,18,18,17,0,16,15,14,14,14,11,14,19,24,17,3,17,29,7,7,0,2,1,1,5,1,4,4,1,1,1,1,1,1,1,1,1,1,1,1,1,1,1,1,1,1,1,1,1,2,1,1228.txt
0,0,24,0,7,0,0,18,0,25,18,21,18,25,18,18,12,20,16,16,15,14,14,14,11,14,19,24,17,3,17,29,7,7,0,2,1,1,1,0,4,4,10,10,19,12,9,3,3,3,3,0,3,3,3,0,14,15,14,25,14,4,27,6,4,1230.txt
0,0,24,0,7,0,0,18,0,25,18,21,18,25,18,18,18,17,0,16,15,14,14,14,11,14,19,24,17,3,17,30,7,7,0,2,1,1,5,1,4,4,1,1,1,1,1,1,1,1,1,1,1,1,1,1,1,1,1,1,1,1,1,2,1,1234.txt
0,0,24,0,7,0,0,18,0,25,18,21,18,25,18,18,18,17,0,16,15,14,14,14,11,14,19,24,17,3,17,29,7,7,0,2,1,1,1,1,4,4,1,1,1,1,1,1,1,1,1,1,1,1,1,1,1,1,1,1,1,1,1,1,1,1237.txt
0,2,1,2,7,0,0,18,0,25,18,21,18,25,18,18,18,17,16,16,2,2,2,2,2,2,2,24,2,2,2,2,2,2,2,1,1,1,1,1,3,8,1,1,1,1,1,1,1,1,3,1,1,1,1,1,1,1,1,1,1,1,1,1,1,1239.txt
9,2,1,16,2,2,16,4,9,7,26,10,26,1,28,13,26,28,9,22,28,25,24,9,14,30,29,13,16,6,22,18,22,22,23,1,1,1,15,12,22,8,17,8,21,29,29,19,19,22,19,23,6,6,6,24,12,12,6,10,21,16,29,19,13,1241.txt
0,0,24,0,7,0,0,18,0,25,18,21,18,25,18,18,12,17,16,16,15,14,14,14,11,14,19,24,17,3,17,29,7,7,0,2,1,1,1,4,4,4,10,10,19,14,9,3,3,3,3,16,3,3,3,4,14,15,14,25,14,4,0,6,4,1243.txt
9,2,1,5,2,2,13,4,9,10,26,1,26,1,1,3,3,3,9,21,4,22,8,4,7,10,10,1,23,6,6,14,5,5,21,1,1,1,1,7,11,8,16,16,11,2,7,9,30,10,3,7,3,3,3,4,14,15,14,25,14,4,27,6,4,1245.txt
0,0,1,2,7,0,0,18,0,25,18,21,18,25,18,18,18,17,0,16,2,2,2,2,2,2,2,24,2,2,2,2,2,2,2,1,1,1,1,1,3,8,1,1,1,1,1,1,1,1,3,1,1,1,1,1,1,1,1,1,1,1,1,1,1,1249.txt
0,0,24,0,7,0,0,18,0,25,18,21,18,25,18,18,18,17,0,16,15,14,14,14,11,14,19,24,17,3,17,29,7,7,0,2,1,1,1,1,4,4,1,1,1,1,1,1,1,1,1,1,1,1,1,1,1,1,1,1,1,1,1,1,1,1251.txt
0,14,7,19,7,0,0,18,0,20,15,21,13,25,24,18,18,24,20,12,7,7,7,27,5,25,4,24,26,22,28,26,18,20,13,6,1,1,15,27,21,22,16,16,22,23,19,16,19,19,27,23,0,0,0,2,5,12,13,8,11,2,2,16,2,1254.txt
0,0,25,0,0,0,0,18,0,25,18,21,18,25,18,18,12,20,16,16,15,14,14,14,11,14,19,5,17,3,17,29,7,7,0,0,6,0,0,4,30,20,10,10,19,14,9,3,3,3,0,14,3,3,3,5,14,15,14,25,14,4,27,4,4,1255.txt
0,0,25,0,0,29,24,6,0,25,18,5,18,25,18,18,25,21,27,16,15,14,14,14,11,16,19,6,0,3,15,0,0,0,0,3,9,3,8,30,30,20,3,23,3,14,9,3,3,3,17,7,5,5,5,9,27,29,26,14,7,7,10,16,7,1267.txt
0,2,1,5,16,0,0,18,0,25,18,21,18,25,18,18,12,20,5,16,8,4,4,11,4,1,1,5,1,1,6,5,5,16,7,1,6,20,20,17,11,8,16,16,11,8,2,2,2,2,3,10,3,3,3,2,14,15,14,25,17,14,8,6,8,1271.txt
20,15,3,29,23,17,2,20,30,5,22,28,30,8,27,11,14,13,24,23,6,24,23,22,5,25,22,18,13,22,26,26,28,14,13,5,23,2,16,8,21,22,13,30,17,11,7,16,30,19,2,11,23,25,27,22,27,29,26,9,17,14,10,13,6,1274.txt
0,0,25,0,0,0,24,6,0,25,18,3,18,25,18,18,22,21,27,3,15,14,14,14,11,14,19,8,17,3,17,8,7,7,0,0,23,0,0,14,27,18,10,10,19,3,3,3,3,3,14,10,5,5,5,29,0,0,0,0,21,16,9,12,6,1276.txt
0,2,1,2,2,0,0,9,6,25,18,21,18,25,18,18,18,17,0,16,8,7,7,19,26,13,29,10,16,21,28,16,22,27,11,6,1,1,5,19,16,17,16,16,16,20,19,8,19,9,5,30,6,6,6,2,5,5,5,8,21,16,8,6,6,1278.txt
0,0,24,0,7,0,0,18,0,25,18,0,18,25,18,18,18,17,0,16,15,14,14,14,11,14,19,24,17,3,0,29,7,7,0,2,1,1,1,1,4,4,1,1,1,1,1,1,1,1,1,1,1,1,1,1,1,1,1,1,1,1,1,1,1,1280.txt
9,2,1,2,2,2,13,9,9,10,26,1,26,1,1,3,3,3,9,21,4,6,6,4,16,10,18,15,23,6,11,14,20,15,30,1,1,1,1,7,11,8,16,16,11,15,26,7,17,8,3,0,3,3,3,0,14,15,14,25,14,4,27,6,4,1283.txt
20,15,3,29,24,23,2,4,6,29,8,14,29,24,30,17,28,12,11,22,6,23,30,21,24,25,14,23,13,22,13,28,15,28,24,18,29,9,12,2,18,30,8,11,22,11,21,23,16,25,16,16,26,28,28,25,28,17,21,13,10,19,16,11,11,1285.txt
0,0,24,0,7,0,0,18,0,25,18,21,18,25,18,18,18,17,16,16,15,14,14,14,11,14,19,24,17,3,17,29,7,7,0,2,1,1,1,4,4,4,10,10,19,14,9,3,3,3,3,6,3,3,3,4,14,15,14,25,14,4,27,6,4,1287.txt
0,0,24,0,7,0,24,23,0,25,18,5,18,25,18,18,23,17,27,16,15,14,14,14,11,16,19,6,0,3,15,0,0,0,0,2,11,11,0,0,30,20,10,10,19,14,11,3,3,3,27,23,6,6,6,7,24,18,19,22,21,16,10,25,6,1288.txt
22,2,23,22,6,23,2,4,6,9,7,13,29,21,9,23,30,14,10,9,8,19,18,11,16,25,18,17,16,30,14,26,18,20,13,6,16,21,21,16,21,29,16,16,22,20,14,16,26,19,28,18,7,7,27,2,5,5,5,8,17,14,8,18,8,1290.txt
9,2,1,16,2,2,13,4,9,7,26,10,26,1,28,20,7,5,9,21,8,22,30,19,15,10,26,10,16,6,12,14,22,16,15,1,1,1,5,7,10,8,16,16,10,30,14,8,25,17,3,30,3,3,3,4,14,15,14,25,14,4,27,19,4,1292.txt
0,0,24,0,7,0,0,18,0,25,18,21,18,25,18,18,18,17,0,16,15,14,14,14,11,14,19,24,17,3,17,29,7,7,0,2,1,1,1,1,4,4,1,1,1,1,1,1,1,1,1,1,1,1,1,1,1,1,1,1,1,1,1,1,1,1295.txt
0,2,1,5,5,0,0,3,11,25,18,21,18,4,4,5,4,4,26,16,8,6,6,11,7,25,18,7,24,30,11,26,6,15,30,22,0,30,18,27,16,22,29,17,16,8,23,17,20,30,14,0,3,3,3,2,14,15,14,25,6,6,8,6,6,1297.txt
0,0,24,0,7,0,0,18,0,25,18,21,18,25,18,18,22,20,16,16,15,14,14,14,11,14,19,5,17,3,17,29,7,7,0,2,6,12,0,0,4,4,10,10,19,14,9,3,3,3,3,10,3,3,3,4,14,15,14,25,14,4,27,6,4,1300.txt
22,2,3,16,16,13,7,1,9,10,23,1,17,7,1,14,1,27,9,21,1,1,1,1,1,10,16,15,14,13,1,1,1,1,1,1,6,30,24,7,25,8,29,20,28,19,16,10,27,11,3,24,3,3,3,0,14,15,14,25,14,4,27,3,4,1302.txt
0,0,24,0,7,0,0,18,0,25,18,21,18,25,18,18,18,17,0,16,15,14,14,14,11,14,19,24,17,3,17,29,7,7,0,2,1,1,1,1,4,4,1,1,1,1,1,1,1,1,1,1,1,1,1,1,1,1,1,1,1,1,1,1,1,1303.txt
0,0,24,0,7,0,0,18,0,25,18,0,18,0,0,18,12,21,27,16,15,14,14,14,11,14,19,8,17,3,0,29,7,7,0,2,0,0,0,0,4,4,10,10,19,14,9,3,3,3,3,0,5,5,5,2,5,5,5,8,14,4,27,6,4,1305.txt
0,0,24,0,7,0,0,18,0,25,18,21,18,25,18,18,18,17,27,3,15,14,14,14,11,14,19,24,17,3,17,29,7,7,0,2,1,1,1,13,4,4,10,10,19,14,9,3,3,3,3,0,3,3,3,9,14,15,14,25,11,24,19,0,30,1307.txt
0,0,24,0,7,0,0,18,0,25,18,21,18,25,18,18,12,21,27,16,15,14,14,14,11,14,19,8,17,3,17,30,7,7,0,2,0,0,0,0,4,4,10,10,19,14,9,15,13,16,14,0,7,7,7,2,5,5,5,8,21,16,8,5,6,1309.txt
0,0,24,0,7,0,0,18,0,25,18,21,18,25,18,18,18,17,0,16,15,14,14,14,11,14,19,24,17,3,17,29,7,7,0,2,1,1,1,1,4,4,1,1,1,1,1,1,1,1,1,1,1,1,1,1,1,1,1,1,1,1,1,1,1,1311.txt
0,0,24,0,7,0,0,18,0,25,18,21,18,25,18,18,18,17,0,16,15,14,14,14,11,14,19,24,17,15,17,29,7,7,0,2,1,1,1,1,4,4,1,1,1,1,1,1,1,1,1,1,1,1,1,1,1,1,1,1,1,1,1,1,1,1314.txt
0,0,24,0,7,0,0,18,0,25,18,21,18,25,18,18,18,17,0,16,15,14,14,14,11,16,19,24,0,3,17,0,0,0,0,2,1,1,5,1,4,4,1,1,1,1,1,1,1,1,1,1,1,1,1,1,1,1,1,1,1,1,1,6,1,1315.txt
0,0,24,0,7,0,0,18,0,25,18,21,18,25,18,18,18,17,16,16,15,14,14,14,11,14,19,24,17,3,17,29,7,7,0,2,1,1,1,1,4,4,1,1,1,1,1,1,1,1,3,1,1,1,1,1,1,1,1,1,1,1,1,1,1,1317.txt
0,0,24,0,7,0,0,18,0,25,18,21,18,25,18,18,18,17,16,16,15,14,14,14,11,16,19,24,0,3,17,0,0,0,0,2,1,1,1,13,4,4,10,10,19,14,9,3,3,3,3,0,3,3,3,0,14,15,14,25,14,4,27,6,4,1318.txt
0,0,24,0,7,0,0,18,0,25,18,21,18,25,18,18,18,17,0,16,15,14,14,14,11,16,19,24,0,3,17,0,0,0,0,2,1,1,5,1,4,4,1,1,1,1,1,1,1,1,1,1,1,1,1,1,1,1,1,1,1,1,1,2,1,1320.txt
0,0,24,0,7,0,15,18,0,25,18,21,18,25,18,18,18,17,0,16,15,14,14,14,11,14,19,24,17,3,5,29,7,7,0,2,1,1,5,1,4,4,1,1,1,1,1,1,1,1,1,1,1,1,1,1,1,1,1,1,1,1,1,1,1,1323.txt
0,0,24,0,7,0,0,18,0,25,18,21,18,25,18,18,18,17,16,16,15,14,14,14,11,14,19,24,17,3,17,29,7,7,0,2,1,1,1,3,4,4,10,10,19,14,9,3,3,3,3,6,20,20,13,8,19,29,26,16,14,4,27,6,4,1325.txt
0,0,24,0,7,0,0,18,0,25,18,21,18,25,18,18,18,17,16,16,15,14,14,14,11,14,19,24,17,3,17,29,7,7,0,2,1,1,5,0,4,4,10,10,19,14,9,3,3,3,3,0,3,3,3,0,14,15,14,25,14,4,0,6,4,1327.txt
0,0,24,0,7,0,0,18,0,25,18,21,18,25,18,18,12,20,16,16,15,14,14,14,11,14,19,5,17,3,17,29,7,7,0,2,6,11,0,0,30,20,10,10,19,14,9,3,3,3,3,0,26,28,18,8,5,5,5,8,11,25,17,25,30,1329.txt
0,0,24,0,7,0,0,18,0,25,18,21,18,25,18,18,18,17,0,16,15,14,14,14,11,14,19,24,17,3,17,30,7,7,0,2,1,1,5,1,4,4,1,1,1,1,1,1,1,1,16,1,1,1,1,1,1,1,1,1,1,1,1,1,1,1331.txt
0,0,24,0,7,0,24,23,0,25,18,25,18,25,18,18,23,17,29,16,15,14,14,14,11,16,19,8,0,3,17,0,0,0,0,2,15,16,8,3,4,4,10,10,19,14,11,3,3,3,27,10,14,14,12,7,0,18,19,0,12,2,2,6,2,1332.txt
0,0,24,0,7,0,0,18,0,25,18,21,18,25,18,18,18,17,0,16,15,14,14,14,11,14,19,24,17,3,17,29,7,7,0,2,1,1,1,1,4,4,1,1,1,1,1,1,1,1,1,1,1,1,1,1,1,1,1,1,1,1,1,1,1,1335.txt
22,15,3,22,6,16,0,4,6,9,5,13,29,19,6,9,15,11,10,9,1,1,1,1,1,25,26,15,24,30,13,20,20,20,21,5,6,2,16,0,11,13,16,16,11,11,26,27,17,28,6,16,3,3,3,2,14,15,14,25,21,16,8,4,6,1337.txt
0,0,24,0,7,10,0,18,0,4,4,21,4,25,18,18,18,17,0,16,15,14,14,14,11,14,19,24,17,3,17,29,7,7,0,2,1,1,5,3,4,4,10,10,19,14,9,3,3,3,1,10,6,6,6,3,24,18,19,8,20,17,8,0,17,1339.txt
0,0,24,0,7,0,0,18,0,25,18,21,18,25,18,18,18,17,0,16,15,14,14,14,11,14,19,24,17,3,17,29,7,7,0,2,1,1,1,1,4,4,1,1,1,1,1,1,1,1,1,1,1,1,1,1,1,1,1,1,1,1,1,0,1,1341.txt
0,0,24,0,7,0,0,18,0,25,18,21,18,25,18,18,18,17,27,16,15,14,14,14,11,14,19,24,17,3,17,30,7,7,0,2,1,1,1,0,4,4,10,10,19,14,9,3,3,3,1,30,5,5,5,3,24,18,19,0,20,17,8,6,6,1344.txt
0,0,24,0,7,0,0,18,0,25,18,21,18,25,18,18,18,17,16,16,15,14,14,14,11,14,19,24,17,3,17,29,7,7,0,2,1,1,1,1,4,4,1,1,1,1,1,1,1,1,3,1,1,1,1,1,1,1,1,1,1,1,1,1,1,1346.txt
0,0,24,0,7,0,0,18,0,25,18,21,18,25,18,18,18,17,0,16,15,14,14,14,11,14,19,24,17,3,17,30,7,7,0,2,1,1,1,1,4,4,1,1,1,1,1,1,1,1,3,1,1,1,1,1,1,1,1,1,1,1,1,1,1,1348.txt
22,15,1,29,26,23,13,25,30,5,8,28,29,8,30,25,26,30,23,19,22,9,30,15,24,25,28,16,24,29,30,28,17,28,21,30,29,23,23,7,13,29,15,15,12,15,26,20,17,23,7,19,26,28,30,8,9,26,25,20,24,22,24,29,19,1351.txt
0,0,24,0,7,0,0,18,0,25,18,21,18,25,18,18,18,17,0,16,15,14,14,14,11,14,19,24,17,3,17,29,7,7,0,2,1,1,1,1,4,4,1,1,1,1,1,1,1,1,3,1,1,1,1,1,1,1,1,1,1,1,1,1,1,1352.txt
0,0,24,0,7,10,0,18,0,4,4,21,4,25,18,18,18,17,5,16,15,14,14,14,11,14,19,24,17,3,17,30,7,7,0,2,1,1,5,1,4,4,1,1,1,1,1,1,1,1,1,1,1,1,1,1,1,1,1,1,1,1,1,2,1,1354.txt
0,0,24,0,7,0,0,18,0,25,18,21,18,25,18,18,18,17,29,16,15,14,14,14,11,14,19,24,17,3,17,29,7,7,0,2,1,1,5,1,4,4,1,1,1,1,1,1,1,1,1,1,1,1,1,1,1,1,1,1,1,1,1,2,1,1356.txt
0,0,24,0,7,0,0,18,0,25,18,21,18,25,18,18,18,17,0,16,15,14,14,14,11,14,19,24,17,3,17,29,7,7,0,2,1,1,7,1,4,4,1,1,1,1,1,1,1,1,1,1,1,1,1,1,1,1,1,1,1,1,1,1,1,1358.txt
0,0,24,0,7,0,0,18,0,25,18,21,18,25,18,18,18,17,0,16,15,14,14,14,11,16,19,24,19,3,17,10,9,9,0,2,1,1,5,1,4,4,1,1,1,1,1,1,1,1,1,1,1,1,1,1,1,1,1,1,1,1,1,2,1,1360.txt
0,0,24,0,7,0,0,18,0,25,18,21,18,25,18,18,12,20,16,16,15,14,14,14,11,14,19,5,17,3,17,29,7,7,0,2,6,0,0,0,4,4,10,10,19,14,9,15,13,16,3,0,3,3,3,0,14,15,14,25,14,4,27,4,4,1362.txt
0,0,24,0,7,0,0,18,0,25,18,21,18,25,18,18,18,17,0,16,15,14,14,14,11,14,19,24,17,3,17,29,7,7,0,2,1,1,1,1,4,4,1,1,1,1,1,1,1,1,1,1,1,1,1,1,1,1,1,1,1,1,1,6,1,1364.txt
0,0,24,0,7,0,0,18,0,25,18,21,18,25,18,18,18,17,0,16,15,14,14,14,11,14,19,24,17,3,17,29,7,7,0,2,1,1,1,1,4,4,1,1,1,1,1,1,1,1,3,1,1,1,1,1,1,1,1,1,1,1,1,6,1,1367.txt
0,0,3,29,0,0,0,18,0,25,18,9,18,25,18,18,22,20,16,16,4,24,23,4,7,19,18,5,14,16,11,26,20,15,30,15,6,2,16,0,10,17,16,16,10,11,26,2,17,2,5,0,23,25,27,8,5,5,5,6,21,16,10,4,6,1368.txt
0,0,24,0,7,0,0,18,0,25,18,21,18,25,18,18,18,17,27,16,15,14,14,14,11,14,19,24,17,3,17,29,7,7,0,2,1,1,1,3,4,4,10,10,19,14,9,3,3,3,14,10,26,28,18,8,27,27,29,21,11,25,8,6,23,1371.txt
0,0,24,0,7,0,0,18,0,25,18,21,18,25,18,18,18,17,27,16,15,14,14,14,11,14,19,24,17,3,17,29,7,7,0,2,1,1,1,0,6,7,10,10,19,14,9,3,3,3,3,30,7,7,7,2,5,5,5,8,17,14,8,6,6,1372.txt
0,0,24,0,7,0,0,18,0,25,18,21,18,25,18,18,18,21,27,16,15,14,14,14,11,16,19,8,0,3,17,0,0,0,0,2,11,0,8,0,4,4,10,10,19,14,11,3,3,3,5,23,7,7,7,2,5,5,5,8,21,16,8,6,6,1375.txt
0,0,24,0,7,0,0,18,0,25,18,21,18,25,18,18,18,17,16,16,15,14,14,14,11,14,19,24,17,3,17,29,7,7,0,2,1,1,1,0,4,4,10,10,19,14,9,3,3,3,3,0,5,5,5,2,5,5,5,8,21,16,8,6,6,1377.txt
0,0,24,0,7,0,0,18,0,25,18,21,18,25,18,18,18,17,0,16,15,14,14,14,11,14,19,24,17,3,17,29,7,7,0,2,1,1,1,7,4,4,10,10,19,14,9,3,3,3,3,0,7,7,7,2,24,18,19,8,21,16,8,6,6,1379.txt
0,0,3,5,10,0,0,18,0,20,15,7,13,25,24,18,12,24,18,12,4,4,4,4,4,1,1,7,1,1,20,5,23,17,7,5,15,7,9,21,18,28,14,28,21,8,2,17,2,20,14,14,0,0,0,29,13,14,8,13,2,28,17,5,11,1380.txt
0,0,25,0,0,0,0,18,0,25,18,21,18,25,18,18,18,17,27,16,15,14,14,14,11,16,19,8,0,3,17,0,0,0,0,12,15,16,3,0,6,7,10,10,19,14,11,3,3,3,27,7,5,5,5,29,6,6,6,10,21,16,8,6,6,1383.txt
0,0,24,0,7,0,0,18,0,25,18,21,18,25,18,18,12,20,16,16,15,14,14,14,11,14,19,5,17,3,17,29,7,7,0,2,6,12,0,0,4,4,10,10,19,14,9,15,13,16,3,0,3,3,3,0,14,15,14,25,14,4,27,6,4,1389.txt
0,0,24,0,7,0,0,18,0,25,18,21,18,25,18,18,12,20,16,16,15,14,14,14,11,14,19,5,17,3,17,29,7,7,0,2,6,12,0,7,4,4,10,10,19,14,9,3,3,3,3,0,3,3,3,0,14,15,14,25,14,4,27,6,4,1390.txt
0,0,24,0,7,0,0,18,0,25,18,21,18,25,18,18,12,17,16,16,15,14,14,14,11,14,19,24,17,3,17,29,7,7,0,2,0,0,0,0,4,4,10,10,19,14,9,15,13,16,3,0,3,3,3,0,14,15,14,25,14,4,27,6,4,1392.txt
0,0,24,0,7,0,0,18,0,25,18,21,18,25,18,18,18,17,0,16,15,14,14,14,11,14,19,24,17,3,17,29,7,7,0,2,1,1,1,1,4,4,1,1,1,1,1,1,1,1,1,1,1,1,1,1,1,1,1,1,1,1,1,1,1,1395.txt
0,0,24,0,7,0,0,18,0,25,18,21,18,25,18,18,18,17,0,16,15,14,14,14,11,14,19,24,17,3,17,30,7,7,0,2,1,1,1,0,4,4,10,10,19,14,9,3,3,3,1,0,2,2,2,3,2,2,2,2,3,3,3,2,3,1396.txt
0,0,24,0,7,0,15,18,0,25,18,21,18,25,18,18,12,17,18,16,15,14,14,14,11,14,19,24,17,3,27,29,7,7,0,2,1,1,1,0,4,4,10,10,19,14,9,3,3,3,3,0,3,3,3,8,14,15,14,25,21,16,29,13,6,1398.txt
0,0,24,0,7,0,0,18,0,25,18,21,18,25,18,18,18,17,0,16,15,14,14,14,11,14,19,24,17,3,17,29,7,7,0,2,1,1,1,1,4,4,1,1,1,1,1,1,1,1,1,1,1,1,1,1,1,1,1,1,1,1,1,0,1,1400.txt
0,0,24,0,7,0,0,18,0,25,18,21,18,25,18,18,23,17,16,16,15,14,14,14,11,16,19,5,19,3,17,10,9,9,0,2,11,16,3,13,4,4,10,10,19,14,9,3,3,3,3,0,3,3,3,7,14,15,14,25,14,4,0,6,4,1402.txt
0,0,24,0,7,0,0,18,0,25,18,21,18,25,18,18,12,20,16,16,15,14,14,14,11,14,19,5,17,3,17,29,7,7,0,11,6,0,0,4,4,4,10,10,19,14,9,3,3,3,12,10,3,3,3,4,14,15,14,25,14,4,27,6,4,1405.txt
0,0,24,0,7,0,0,18,0,25,18,21,18,25,18,18,18,17,0,16,15,14,14,14,11,14,19,24,17,3,17,29,7,7,0,2,1,1,1,1,4,4,1,1,1,1,1,1,1,1,3,1,1,1,1,1,1,1,1,1,1,1,1,1,1,1407.txt
0,0,24,0,7,0,0,18,0,25,18,21,18,25,18,18,18,17,16,16,15,14,14,14,11,16,19,24,0,3,17,0,0,0,0,2,1,1,1,0,4,4,10,10,19,14,9,15,13,16,3,0,7,7,7,8,18,8,9,15,21,16,8,6,6,1409.txt
23,30,10,29,6,24,0,8,13,11,30,15,22,11,10,23,30,14,12,11,20,5,5,26,5,13,29,14,16,21,29,18,25,29,17,6,28,8,11,8,21,17,14,8,22,9,18,30,28,17,5,30,6,6,6,16,6,6,8,10,21,16,29,10,13,1412.txt
0,0,24,0,7,0,0,18,0,25,18,21,18,25,18,18,18,17,0,16,15,14,14,14,11,14,19,24,17,3,17,29,7,7,0,2,1,1,1,1,4,4,1,1,1,1,1,1,1,1,3,1,1,1,1,1,1,1,1,1,1,1,1,1,1,1416.txt
0,0,24,0,7,0,0,18,0,25,18,21,18,25,18,18,18,17,29,16,15,14,14,14,11,16,19,24,0,3,17,0,0,0,0,2,1,1,7,0,4,4,10,10,19,14,9,15,13,16,5,0,5,5,5,2,5,6,6,8,21,16,8,6,6,1418.txt
0,0,24,28,7,0,0,18,0,25,18,21,18,25,18,18,18,17,0,16,15,14,14,14,11,14,19,24,17,3,19,29,7,7,0,2,1,1,1,1,4,4,1,1,1,1,1,1,1,1,1,1,1,1,1,1,1,1,1,1,1,1,1,1,1,1421.txt
0,0,24,0,7,0,0,18,0,25,18,21,18,25,18,18,18,17,27,16,15,14,14,14,11,16,19,24,0,3,17,0,0,0,0,2,16,11,0,0,4,4,10,10,19,14,9,3,3,3,16,6,14,14,13,9,12,12,13,10,11,25,17,6,30,1422.txt
0,0,24,0,7,0,0,18,0,25,18,21,18,25,18,18,18,17,0,3,15,14,14,14,11,14,19,24,17,3,17,29,7,7,0,2,1,1,1,1,4,4,1,1,1,1,1,1,1,1,1,1,1,1,1,1,1,1,1,1,1,1,1,1,1,1425.txt
0,0,24,0,7,0,0,18,0,25,18,21,18,25,18,18,12,17,27,6,15,14,14,14,11,14,19,24,17,3,17,29,7,7,0,2,1,1,1,13,4,4,10,10,19,14,9,3,3,3,3,0,3,3,3,0,14,15,14,25,14,4,27,6,4,1427.txt
0,0,24,0,7,0,0,18,0,25,18,0,18,25,18,18,12,17,16,16,15,14,14,14,11,14,19,24,17,3,0,29,7,7,0,2,1,1,1,0,4,4,10,10,19,14,9,3,3,3,3,0,3,3,3,0,14,15,14,25,14,4,27,6,4,1429.txt
0,0,24,0,7,0,0,18,0,25,18,21,18,25,18,18,22,21,27,3,15,14,14,14,11,14,19,8,17,3,17,29,7,7,0,2,25,12,0,13,4,4,4,4,4,14,9,3,3,3,5,14,6,6,6,27,24,18,19,0,17,14,8,11,6,1431.txt
0,0,24,0,7,0,0,18,0,25,18,21,18,25,18,18,12,21,16,16,15,14,14,14,11,14,19,7,17,3,17,30,7,7,0,2,11,0,0,7,4,4,10,10,19,14,9,3,3,3,3,0,3,3,3,0,14,15,14,25,14,4,27,6,4,1433.txt
0,0,24,0,7,0,0,18,0,25,18,21,18,25,18,18,18,21,0,16,15,14,14,14,11,16,19,24,19,3,17,10,9,9,0,2,1,1,5,1,4,4,1,1,1,1,1,1,1,1,1,1,1,1,1,1,1,1,1,1,1,1,1,2,1,1434.txt
0,0,24,0,7,0,0,18,0,25,18,21,18,25,18,18,18,21,0,16,15,14,14,14,11,16,19,24,19,3,17,10,9,9,0,2,1,1,5,1,4,4,1,1,1,1,1,1,1,1,1,1,1,1,1,1,1,1,1,1,1,1,1,2,1,1436.txt
0,0,25,0,0,0,0,18,0,25,18,21,18,25,18,18,18,21,0,16,15,14,14,14,11,16,19,30,19,3,17,10,9,9,0,0,4,12,0,0,30,20,10,10,19,14,11,3,3,3,1,23,2,2,2,3,2,2,2,2,3,3,3,2,3,1439.txt
0,0,24,0,7,0,0,18,0,25,18,21,18,25,18,18,18,17,0,3,15,14,14,14,11,16,19,24,30,3,17,24,8,8,0,2,1,1,1,13,4,4,10,10,19,3,3,3,3,3,14,0,5,5,5,7,19,30,11,15,21,16,8,6,6,1441.txt
0,0,24,0,7,0,0,18,0,25,18,21,18,25,18,18,12,20,16,16,15,14,14,14,11,14,19,24,17,3,17,29,7,7,0,2,11,0,0,13,4,4,10,10,19,14,9,3,3,3,3,0,3,3,3,0,14,15,14,25,14,4,27,6,4,1442.txt
0,0,25,0,0,0,0,18,0,25,18,21,18,25,18,18,22,20,16,16,15,14,14,14,11,14,19,5,17,3,17,29,7,7,0,0,6,0,0,13,30,20,10,10,19,14,9,3,3,3,6,16,5,5,5,8,27,29,26,6,21,16,10,4,6,1444.txt
0,0,24,0,7,0,0,18,0,25,18,21,18,25,18,18,18,17,27,16,15,14,14,14,11,16,19,24,0,3,17,0,0,0,0,2,1,1,1,0,6,7,10,10,19,14,9,3,3,3,6,0,7,7,7,2,5,5,5,8,21,16,8,6,6,1446.txt
0,0,24,0,7,0,0,18,0,25,18,21,18,25,18,18,18,17,27,16,15,14,14,14,11,14,19,24,17,3,17,29,7,7,0,2,0,0,0,0,4,4,10,10,19,14,9,15,13,16,14,0,5,5,5,2,5,5,5,8,21,16,8,6,6,1448.txt
0,0,24,0,7,0,0,18,0,25,18,21,18,25,18,18,18,17,0,16,15,14,14,14,11,16,19,24,0,3,17,0,0,0,0,2,1,1,1,1,4,4,1,1,1,1,1,1,1,1,3,1,1,1,1,1,1,1,1,1,1,1,1,1,1,1451.txt
0,0,24,0,7,0,0,18,0,25,18,21,18,25,18,18,18,17,0,16,15,14,14,14,11,14,19,24,17,3,17,29,7,7,0,2,1,1,1,1,4,4,1,1,1,1,1,1,1,1,1,1,1,1,1,1,1,1,1,1,1,1,1,1,1,1453.txt
0,0,24,0,7,0,0,18,0,25,18,21,18,25,18,18,18,17,27,16,15,14,14,14,11,14,19,24,17,3,17,29,7,7,0,2,1,1,7,27,6,7,10,10,19,14,11,3,3,3,5,30,7,7,7,7,28,17,6,13,20,17,8,6,17,1454.txt
0,2,3,5,0,0,0,4,9,25,18,21,18,25,18,18,12,20,16,16,8,4,4,11,4,1,1,1,1,1,6,5,5,5,7,1,6,30,18,8,10,8,16,16,10,2,2,2,2,2,0,0,3,3,3,0,14,15,14,25,14,4,27,4,4,1456.txt
0,0,24,0,7,0,0,18,0,25,18,21,18,25,18,18,18,17,27,16,15,14,14,14,11,16,19,24,19,3,17,10,9,9,0,2,1,1,1,0,4,4,10,10,19,14,9,3,3,3,3,0,6,6,6,0,21,28,28,21,14,4,0,6,4,1458.txt
0,0,24,0,7,0,0,18,0,25,18,21,18,25,18,18,18,20,16,16,15,14,14,14,11,16,19,5,0,3,17,0,0,0,0,2,16,12,0,30,4,4,10,10,19,14,9,3,3,3,0,30,26,28,19,8,27,27,29,20,23,2,2,11,2,1460.txt
0,0,24,0,7,0,0,18,0,25,18,21,18,25,18,18,18,17,0,16,15,14,14,14,11,14,19,24,17,3,17,29,7,7,0,2,1,1,1,0,4,4,10,10,19,14,9,15,13,16,6,0,5,5,5,2,5,5,5,8,21,16,8,6,6,1462.txt
0,0,24,0,7,0,0,18,0,25,18,21,18,25,18,18,18,17,0,3,15,14,14,14,11,14,19,24,17,15,17,29,7,7,0,2,1,1,1,1,4,4,1,1,1,1,1,1,1,1,1,1,1,1,1,1,1,1,1,1,1,1,1,1,1,1465.txt
0,0,24,0,7,0,0,18,0,25,18,21,18,25,18,18,18,17,0,16,15,14,14,14,11,14,19,24,17,3,27,29,7,7,0,2,1,1,1,1,4,4,1,1,1,1,1,1,1,1,1,1,1,1,1,1,1,1,1,1,1,1,1,1,1,1467.txt
0,0,24,0,7,0,0,18,0,25,18,21,18,25,18,18,18,17,0,16,15,14,14,14,11,14,19,24,17,3,17,29,7,7,0,2,1,1,5,1,4,4,1,1,1,1,1,1,1,1,1,1,1,1,1,1,1,1,1,1,1,1,1,1,1,1469.txt
0,14,7,19,6,0,0,4,6,25,18,21,18,25,18,18,18,17,27,16,11,24,23,9,21,28,29,10,16,28,24,26,18,19,11,27,24,17,17,18,21,26,17,8,18,24,27,13,19,9,27,30,23,25,27,23,6,6,6,10,21,16,28,5,12,1470.txt
0,2,1,5,16,0,0,18,0,18,15,21,13,25,24,18,12,20,16,12,4,4,4,4,4,1,1,5,1,1,6,5,5,5,7,1,6,2,16,4,10,8,16,16,10,2,2,9,2,10,3,6,3,3,3,4,14,15,14,25,14,4,27,4,4,1473.txt
0,0,24,0,7,0,0,18,0,25,18,21,18,25,18,18,18,17,16,16,15,14,14,14,11,14,19,24,17,3,17,29,7,7,0,2,1,1,1,1,4,4,1,1,1,1,1,1,1,1,3,1,1,1,1,1,1,1,1,1,1,1,1,1,1,1475.txt
0,0,24,0,7,0,0,18,0,25,18,21,18,25,18,18,18,17,0,16,15,14,14,14,11,16,19,24,0,3,17,0,0,0,0,2,1,1,7,0,4,4,10,10,19,14,11,3,3,3,27,23,5,5,5,29,6,6,6,9,21,16,8,6,6,1477.txt
0,0,24,0,7,0,0,18,0,25,18,21,18,25,18,18,22,20,16,16,15,14,14,14,11,14,19,5,17,3,17,29,7,7,0,2,6,11,0,0,4,4,10,10,19,14,9,15,13,16,14,4,3,3,3,8,14,15,14,25,17,14,8,11,6,1480.txt
0,14,1,2,2,2,0,18,0,3,26,2,3,3,3,3,3,3,3,4,2,2,2,2,2,2,2,24,2,2,2,2,2,2,2,4,1,1,1,1,3,3,1,1,1,1,1,1,1,1,1,1,1,1,1,1,1,1,1,1,1,1,1,1,1,1482.txt
0,0,24,0,7,0,0,18,0,25,18,21,18,25,18,18,12,20,16,16,15,14,14,14,11,14,19,5,17,3,17,29,7,7,0,2,6,0,0,0,4,4,10,10,19,14,9,3,3,3,3,0,3,3,3,0,14,15,14,25,14,4,27,6,4,1484.txt
0,0,24,0,7,0,0,18,0,25,18,7,18,25,18,18,12,20,16,16,15,14,14,14,11,14,19,5,17,3,17,29,7,7,0,2,6,11,0,0,30,20,10,10,19,14,9,3,3,3,14,0,3,3,3,10,14,15,14,25,21,16,10,4,6,1487.txt
0,0,24,0,7,0,0,18,0,25,18,21,18,25,18,18,18,17,0,16,15,14,14,14,11,16,19,24,0,3,17,0,0,0,0,2,1,1,7,0,4,4,10,10,19,3,3,3,3,3,1,23,2,2,2,3,2,2,2,2,3,3,3,2,3,1490.txt
0,0,24,0,7,0,0,18,0,25,18,21,18,25,18,18,12,17,16,16,15,14,14,14,11,16,19,24,0,3,17,0,0,0,0,2,1,1,1,0,4,4,10,10,19,14,9,3,3,3,3,0,3,3,3,0,14,15,14,25,14,4,27,6,4,1491.txt
22,15,3,29,30,24,26,4,6,9,30,13,22,11,10,13,26,12,10,9,6,6,6,21,15,19,26,26,12,16,13,18,20,28,15,15,6,2,16,8,13,29,16,16,12,15,26,2,17,2,30,0,6,6,6,8,5,5,5,6,21,16,29,4,6,1494.txt
9,2,1,29,2,2,13,4,6,9,26,13,5,11,9,7,3,7,10,9,8,6,6,11,16,28,18,10,23,30,24,26,18,19,11,22,1,1,6,27,11,22,16,16,11,23,27,30,27,9,27,30,7,7,27,2,5,5,5,8,6,6,8,6,13,1497.txt
0,0,24,0,7,0,0,18,0,25,18,21,18,25,18,18,18,17,0,16,15,14,14,14,11,14,19,24,17,3,17,29,7,7,0,2,1,1,1,1,4,4,1,1,1,1,1,1,1,1,1,1,1,1,1,1,1,1,1,1,1,1,1,1,1,1499.txt
0,0,24,0,7,0,0,18,0,25,18,21,18,25,18,18,18,17,0,16,15,14,14,14,11,14,19,24,17,3,17,29,7,7,0,2,1,1,1,1,4,4,1,1,1,1,1,1,1,1,1,1,1,1,1,1,1,1,1,1,1,1,1,2,1,1502.txt
0,0,24,0,7,0,0,18,0,25,18,7,18,25,18,18,12,20,16,16,15,14,14,14,11,16,19,5,0,3,17,0,0,0,0,2,6,12,0,0,4,4,10,10,19,14,9,3,3,3,3,0,3,3,3,2,14,15,14,25,14,4,27,24,4,1504.txt
0,0,25,0,0,0,0,18,0,25,18,7,18,25,18,18,19,24,27,16,15,14,14,14,11,14,19,7,17,3,17,29,7,7,0,12,24,16,8,18,6,7,10,10,19,14,11,3,3,3,5,20,23,25,7,2,28,17,21,13,17,14,8,18,6,1505.txt
0,0,24,0,7,0,12,23,0,25,18,25,18,25,18,18,18,17,0,16,15,14,14,14,11,16,19,24,0,3,17,0,0,0,0,2,1,1,5,1,4,4,1,1,1,1,1,1,1,1,1,1,1,1,1,1,1,1,1,1,1,1,1,2,1,1507.txt
0,0,1,2,7,0,0,3,4,25,18,21,18,4,4,6,4,4,5,16,8,6,6,11,7,10,18,24,16,6,11,14,18,15,30,1,1,1,5,0,11,8,29,18,11,28,27,8,18,9,3,0,3,3,3,0,14,15,14,25,14,4,27,1,4,1509.txt
0,0,24,0,7,0,0,18,0,25,18,21,18,25,18,18,12,17,18,16,15,14,14,14,11,14,19,7,17,3,17,29,7,7,0,2,9,0,3,4,4,4,10,10,19,14,9,3,3,3,14,7,3,3,3,2,14,15,14,25,12,2,2,6,2,1511.txt
0,0,24,0,7,0,0,18,0,25,18,21,18,25,18,18,12,20,16,16,15,14,14,14,11,14,19,5,17,3,17,8,7,7,0,2,6,14,0,0,30,18,10,10,19,14,9,3,3,3,6,0,5,5,5,2,5,5,5,6,21,16,9,4,6,1513.txt
0,0,24,0,7,0,0,18,0,25,18,0,18,25,18,18,12,20,16,16,15,14,14,14,11,14,19,2,17,3,0,29,7,7,0,2,6,0,0,0,4,4,10,10,19,14,9,15,13,16,3,0,3,3,3,0,14,15,14,25,14,4,27,18,4,1515.txt
0,0,24,0,7,0,0,18,0,25,18,21,18,25,18,18,18,17,0,16,15,14,14,14,11,14,19,24,17,3,17,29,7,7,0,2,1,1,1,1,4,4,1,1,1,1,1,1,1,1,3,1,1,1,1,1,1,1,1,1,1,1,1,1,1,1518.txt
0,0,25,0,0,0,0,18,0,25,18,21,18,25,18,18,23,21,27,16,15,14,14,14,11,16,19,8,0,3,17,0,0,0,0,0,15,11,3,0,6,7,10,10,19,14,11,3,3,3,5,20,23,25,7,2,6,6,21,9,7,7,9,18,6,1519.txt
0,0,24,0,7,0,0,18,0,25,18,21,18,25,18,18,18,21,16,16,15,14,14,14,11,14,19,24,17,3,17,30,7,7,0,2,1,1,1,0,4,4,10,10,19,3,3,3,3,3,3,0,3,3,3,0,14,15,14,25,14,4,27,6,4,1521.txt
0,0,24,0,7,0,0,18,0,25,18,21,18,25,18,18,18,17,16,16,15,14,14,14,11,14,19,24,17,3,17,29,7,7,0,2,1,1,1,1,4,4,1,1,1,1,1,1,1,1,3,1,1,1,1,1,1,1,1,1,1,1,1,1,1,1523.txt
0,0,24,0,7,0,0,18,0,25,18,21,18,25,18,18,18,17,0,16,15,14,14,14,11,14,19,2,17,3,17,30,7,7,0,2,1,1,1,22,4,4,10,10,19,14,9,3,3,3,14,6,5,5,5,2,24,18,19,0,20,17,8,6,17,1526.txt
0,0,24,0,7,0,0,18,0,25,18,21,18,25,18,18,18,17,27,16,15,14,14,14,11,14,19,24,17,3,17,29,7,7,0,2,1,1,1,22,4,4,10,10,19,14,9,3,3,3,17,30,6,6,6,2,5,5,5,8,8,8,8,6,8,1528.txt
22,2,3,16,22,0,10,1,9,25,18,21,18,25,18,18,12,24,27,16,8,6,6,19,15,10,26,10,15,6,12,16,18,16,11,1,25,21,21,16,19,8,23,18,9,20,18,2,18,2,3,30,6,6,6,8,24,18,19,0,14,4,27,29,4,1529.txt
0,0,24,0,7,0,0,18,0,25,18,21,18,25,18,18,12,20,16,16,15,14,14,14,11,14,19,5,17,3,17,29,7,7,0,2,6,0,0,0,4,4,10,10,19,14,9,3,3,3,3,0,3,3,3,0,14,15,14,25,14,4,27,9,4,1532.txt
0,0,24,0,7,0,0,18,0,25,18,21,18,25,18,18,18,17,0,16,15,14,14,14,11,16,19,24,19,3,17,10,9,9,0,2,13,1,1,0,30,20,10,10,19,14,9,3,3,3,1,30,6,6,6,3,28,17,6,9,20,17,8,6,6,1534.txt
22,15,3,5,5,11,2,4,6,29,7,4,5,28,15,9,15,11,11,10,20,22,30,11,7,22,18,10,13,26,20,13,23,19,11,25,9,21,21,16,21,28,17,11,21,18,27,8,18,9,28,30,23,25,27,30,13,14,6,9,17,14,8,6,8,1536.txt
0,0,24,0,7,0,0,18,0,25,18,21,18,25,18,27,12,21,27,16,15,14,14,14,11,15,19,24,0,3,17,0,0,0,0,2,0,0,0,0,6,7,10,10,19,14,9,3,3,3,14,0,5,5,5,2,5,5,5,8,21,16,8,6,6,1538.txt
0,0,24,0,7,0,0,18,0,25,18,0,18,25,18,18,18,17,0,16,15,14,14,14,11,14,19,24,17,3,0,29,7,7,0,2,1,1,5,1,4,4,1,1,1,1,1,1,1,1,1,1,1,1,1,1,1,1,1,1,1,1,1,1,1,1540.txt
0,0,24,0,7,0,0,18,0,25,18,21,18,25,18,18,18,17,0,16,15,14,14,14,11,14,19,24,17,3,17,29,7,7,0,2,1,1,1,1,4,4,1,1,1,1,1,1,1,1,3,1,1,1,1,1,1,1,1,1,1,1,1,1,1,1543.txt
0,0,24,0,7,0,0,18,0,25,18,21,18,25,18,18,18,17,0,16,15,14,14,14,11,14,19,24,17,3,17,29,7,7,0,2,1,1,1,1,4,4,1,1,1,1,1,1,1,1,1,1,1,1,1,1,1,1,1,1,1,1,1,6,1,1545.txt
22,2,1,16,16,3,13,4,9,10,23,1,26,1,1,23,1,14,9,21,8,6,6,11,7,10,18,15,24,6,11,14,21,15,30,1,6,25,27,0,11,8,11,12,11,15,26,18,17,21,3,0,3,3,3,0,14,15,14,25,14,4,27,4,4,1546.txt
0,0,24,0,7,0,0,18,0,25,18,21,18,25,18,18,12,21,27,16,15,14,14,14,11,14,19,7,17,3,17,29,7,7,0,2,23,0,0,4,4,4,10,10,19,14,9,3,3,3,3,8,3,3,3,8,14,15,14,25,14,4,27,6,4,1548.txt
0,0,24,0,7,0,0,18,0,25,18,21,18,25,18,18,12,17,16,16,15,14,14,14,11,14,19,24,17,3,17,29,7,7,0,2,1,1,1,4,4,4,10,10,19,14,9,3,3,3,3,12,3,3,3,4,14,15,14,25,14,4,27,6,4,1551.txt
0,0,24,0,7,0,0,18,0,25,18,21,18,25,18,18,18,17,16,16,15,14,14,14,11,14,19,24,17,3,17,29,7,7,0,2,1,1,1,1,4,4,1,1,1,1,1,1,1,1,3,1,1,1,1,1,1,1,1,1,1,1,1,1,1,1552.txt
0,0,24,0,7,0,0,18,0,25,18,21,18,25,18,18,18,17,0,16,15,14,14,14,11,14,19,24,17,3,17,29,7,7,0,2,1,1,1,1,4,4,1,1,1,1,1,1,1,1,1,1,1,1,1,1,1,1,1,1,1,1,1,1,1,1556.txt
0,0,24,0,7,0,0,18,0,25,18,21,18,25,18,18,18,17,0,16,15,14,14,14,11,14,19,24,17,3,17,29,7,7,0,2,1,1,5,1,4,4,1,1,1,1,1,1,1,1,1,1,1,1,1,1,1,1,1,1,1,1,1,1,1,1558.txt
0,0,25,0,0,0,3,6,0,25,18,3,18,25,18,18,12,21,27,16,15,14,14,14,11,16,19,8,0,3,17,0,0,0,0,0,0,0,0,0,30,20,10,10,19,14,9,3,3,3,14,0,5,5,5,29,24,18,19,22,21,16,9,5,6,1561.txt
0,0,24,0,7,0,0,18,0,25,18,0,18,25,18,18,18,17,0,16,15,14,14,14,11,14,19,2,17,3,0,29,7,7,0,2,1,1,1,1,4,4,1,1,1,1,1,1,1,1,3,1,1,1,1,1,1,1,1,1,1,1,1,1,1,1563.txt
0,0,24,0,7,0,0,18,0,25,18,21,18,25,18,18,18,17,0,16,15,14,14,14,11,16,19,24,0,3,17,0,0,0,0,2,1,1,5,1,4,4,1,1,1,1,1,1,1,1,1,1,1,1,1,1,1,1,1,1,1,1,1,2,1,1565.txt
0,0,24,0,7,0,0,18,0,25,18,21,18,25,18,18,18,17,16,16,15,14,14,14,11,14,19,24,17,3,17,29,7,7,0,2,1,1,1,1,4,4,1,1,1,1,1,1,1,1,3,1,1,1,1,1,1,1,1,1,1,1,1,1,1,1567.txt
0,0,24,0,7,0,0,18,0,25,18,21,18,25,18,18,12,20,16,16,15,14,14,14,11,14,19,5,17,3,17,29,7,7,0,2,6,0,0,0,4,4,6,6,6,14,9,3,3,3,3,3,3,3,3,0,14,15,14,25,14,4,27,4,4,1570.txt
0,0,24,0,7,0,0,18,0,25,18,21,18,25,18,18,22,21,27,16,15,14,14,14,11,14,19,8,17,3,17,29,7,7,0,2,9,0,0,22,4,4,10,10,19,14,9,3,3,3,14,10,5,5,5,8,27,29,26,8,17,14,8,25,8,1572.txt
0,0,24,0,7,0,0,18,0,25,18,21,18,25,18,18,23,21,27,16,15,14,14,14,11,14,19,8,17,3,17,29,7,7,0,2,17,0,0,13,4,4,10,10,19,14,11,3,3,3,27,22,7,7,7,7,5,5,5,8,21,16,8,6,6,1574.txt
0,0,24,0,7,0,0,18,0,25,18,21,18,25,18,18,18,17,16,16,15,14,14,14,11,14,19,24,17,3,17,29,7,7,0,2,1,1,1,0,4,4,10,10,19,14,9,3,3,3,3,0,3,3,3,0,14,15,14,25,14,4,27,6,4,1581.txt
0,0,24,0,7,0,0,18,0,25,18,21,18,25,18,18,18,17,28,16,15,14,14,14,11,14,19,24,17,3,17,29,7,7,0,2,1,1,1,0,4,4,10,10,19,14,9,3,3,3,3,0,3,3,3,0,14,15,14,25,14,4,0,1,4,1583.txt
0,0,25,0,0,0,0,18,0,25,18,21,18,25,18,18,12,21,27,16,15,14,14,14,11,14,19,8,17,3,17,29,7,7,0,0,15,0,0,3,4,4,10,10,19,14,9,3,3,3,5,7,7,7,7,2,5,5,5,8,8,8,8,18,8,1585.txt
0,0,24,0,7,0,0,19,0,25,18,21,18,25,18,18,12,20,16,16,15,14,14,14,11,14,19,5,17,3,17,29,7,7,0,2,6,0,0,0,4,4,10,10,19,14,9,3,3,3,3,0,3,3,3,0,14,15,14,25,14,4,27,6,4,1587.txt
0,0,24,0,7,0,0,18,0,25,18,21,18,25,18,18,12,20,16,16,15,14,14,14,11,14,19,5,17,3,17,29,7,7,0,2,6,0,0,13,4,4,10,10,19,14,9,15,13,16,3,0,3,3,3,0,14,15,14,25,14,4,27,4,4,1589.txt
0,0,24,0,7,0,0,18,0,25,18,21,18,25,18,18,18,17,0,16,15,14,14,14,11,14,19,24,17,3,17,29,7,7,0,2,1,1,5,1,4,4,1,1,1,1,1,1,1,1,1,1,1,1,1,1,1,1,1,1,1,1,1,1,1,1590.txt
0,0,24,0,7,0,0,18,0,25,18,21,18,25,18,18,12,20,16,16,15,14,14,14,11,14,19,5,17,3,17,29,7,7,0,2,6,0,0,0,4,4,3,3,19,14,9,3,3,3,3,0,3,3,3,0,14,15,14,25,14,4,27,6,4,1594.txt
0,0,24,0,7,0,0,18,0,25,18,21,18,25,18,18,18,17,0,16,15,14,14,14,11,14,19,24,17,3,17,29,7,7,0,2,1,1,5,1,4,4,1,1,1,1,1,1,1,1,1,1,1,1,1,1,1,1,1,1,1,1,1,1,1,1596.txt
0,0,24,0,7,0,0,18,0,25,18,21,18,25,18,18,18,17,0,16,15,14,14,14,11,14,19,24,17,3,17,29,7,7,0,2,1,1,1,1,4,4,1,1,1,1,1,1,1,1,1,1,1,1,1,1,1,1,1,1,1,1,1,1,1,1598.txt
0,0,24,0,7,0,0,18,0,25,18,21,18,25,18,18,18,17,0,16,15,14,14,14,11,14,19,24,17,3,17,29,7,7,0,2,1,1,1,1,4,4,1,1,1,1,1,1,1,1,3,1,1,1,1,1,1,1,1,1,1,1,1,1,1,1600.txt
0,0,24,0,7,0,0,18,0,25,18,21,18,25,18,18,12,21,27,16,15,14,14,14,11,14,19,8,17,3,17,29,7,7,0,2,9,0,0,0,30,20,3,23,3,14,9,3,3,3,14,7,5,5,5,2,5,5,5,8,17,14,10,5,6,1602.txt
0,0,24,0,7,0,0,18,0,25,18,21,18,25,18,18,18,17,0,16,15,14,14,14,11,14,19,24,17,3,17,29,7,7,0,2,1,1,1,1,4,4,1,1,1,1,1,1,1,1,1,1,1,1,1,1,1,1,1,1,1,1,1,2,1,1604.txt
0,0,24,0,7,0,0,18,0,25,18,21,18,25,18,18,12,20,16,16,15,14,14,14,11,14,19,5,17,3,17,29,7,7,0,2,6,0,0,13,30,20,10,10,19,14,9,15,13,16,6,0,0,0,0,2,5,5,5,8,11,2,2,5,2,1605.txt
0,0,24,0,7,0,0,18,0,25,18,7,18,25,18,18,12,24,18,16,15,14,14,14,11,14,19,7,17,3,17,29,7,7,0,2,11,12,0,0,30,20,10,10,19,14,9,3,3,3,16,0,5,5,5,30,12,12,13,9,21,16,8,6,6,1608.txt
0,0,24,0,7,0,0,18,0,25,18,21,18,25,18,18,12,20,16,16,15,14,14,14,11,14,19,24,17,3,17,29,7,7,0,2,1,1,1,0,4,4,10,10,19,14,9,3,3,3,3,0,3,3,3,0,14,15,14,25,14,4,27,6,4,1610.txt
0,0,24,0,7,0,0,18,0,25,18,21,18,25,18,18,12,20,16,16,15,14,14,14,11,16,19,5,0,3,17,0,0,0,0,2,23,0,0,4,4,4,10,10,19,14,9,3,3,3,3,8,3,3,3,8,14,15,14,25,17,14,8,6,8,1612.txt
0,0,24,0,7,0,0,18,0,25,18,21,18,25,18,18,18,17,0,16,15,14,14,14,11,14,19,24,17,3,17,29,7,7,0,2,1,1,5,1,4,4,1,1,1,1,1,1,1,1,1,1,1,1,1,1,1,1,1,1,1,1,1,1,1,1615.txt
0,0,24,0,7,0,0,18,0,25,18,21,18,25,18,18,18,21,27,16,15,14,14,14,11,16,19,24,0,3,15,0,0,0,0,2,1,1,5,0,4,4,10,10,19,14,11,3,3,3,0,23,5,5,5,2,24,18,19,0,21,16,8,6,6,1616.txt
0,0,24,0,7,0,0,18,0,25,18,21,18,25,18,18,18,17,0,16,15,14,14,14,11,14,19,24,17,3,17,29,7,7,0,2,1,1,1,1,4,4,1,1,1,1,1,1,1,1,3,1,1,1,1,1,1,1,1,1,1,1,1,1,1,1618.txt
0,0,24,0,7,0,0,18,0,25,18,21,18,25,18,18,18,24,27,16,15,14,14,14,11,14,19,7,17,3,17,29,7,7,0,2,24,12,0,0,4,4,10,10,19,14,9,3,3,3,0,10,7,7,7,8,5,5,5,8,14,4,27,6,4,1622.txt
0,0,24,0,7,0,0,18,0,25,18,0,18,25,18,18,18,17,27,16,15,14,14,14,11,16,19,2,0,3,0,0,0,0,0,2,1,1,1,0,4,4,10,10,19,14,9,3,3,3,1,0,5,5,5,3,24,18,19,0,21,16,8,6,6,1623.txt
0,0,24,0,7,0,0,18,0,25,18,21,18,25,18,18,18,17,0,16,15,14,14,14,11,16,19,24,0,3,17,0,0,0,0,2,1,1,1,1,4,4,1,1,1,1,1,1,1,1,1,1,1,1,1,1,1,1,1,1,1,1,1,1,1,1626.txt
0,0,24,0,7,0,0,18,0,0,0,21,0,0,0,0,0,0,16,0,0,16,0,17,18,0,0,5,0,3,17,0,0,0,0,2,6,0,0,0,17,0,10,10,3,14,9,3,3,3,14,0,0,0,0,2,24,18,19,6,11,11,15,9,30,1629.txt
0,0,24,0,7,0,0,18,0,25,18,21,18,25,18,18,12,20,16,16,15,14,14,14,11,14,19,24,17,3,17,29,7,7,0,2,1,1,1,0,4,4,10,10,19,14,9,3,3,3,3,0,3,3,3,0,14,15,14,25,14,4,27,6,4,1631.txt
0,0,24,0,7,0,0,18,0,25,18,21,18,25,18,18,18,21,16,16,15,14,14,14,11,16,19,24,0,3,17,0,0,0,0,2,1,1,5,0,4,4,10,10,19,14,11,3,3,3,1,30,5,5,5,3,5,5,5,8,11,25,8,6,28,1632.txt
0,0,25,0,0,0,0,18,0,25,18,0,18,25,18,18,22,21,27,16,15,14,14,14,11,14,19,8,17,3,0,29,7,7,0,0,0,0,0,0,30,20,10,10,19,14,9,15,13,16,5,0,5,5,5,2,5,5,5,8,21,16,8,5,6,1637.txt
0,0,24,0,7,0,0,18,0,25,18,21,18,25,18,18,12,20,16,16,15,14,14,14,11,14,19,5,17,3,17,29,7,7,0,2,6,0,0,0,4,4,10,10,19,14,9,3,3,3,3,10,3,3,3,4,14,15,14,25,14,4,27,6,4,1639.txt
0,2,1,2,2,0,0,18,0,25,18,21,18,25,18,18,18,17,0,16,2,2,2,2,2,2,2,24,2,2,2,2,2,2,2,4,1,1,5,1,3,3,1,1,1,1,1,1,1,1,1,1,1,1,1,1,1,1,1,1,1,1,1,0,1,1641.txt
0,0,24,0,7,0,0,18,0,25,18,21,18,25,18,18,12,20,16,16,15,14,14,14,11,14,19,5,17,3,17,30,7,7,0,2,6,0,0,7,4,4,10,10,19,3,3,3,3,3,3,0,3,3,3,0,14,15,14,25,14,4,27,6,4,1643.txt
0,0,24,0,7,0,0,18,0,25,18,21,18,25,18,18,22,21,27,16,15,14,14,14,11,14,19,8,17,3,17,29,7,7,0,2,0,0,0,0,30,20,10,10,19,14,9,3,3,3,14,0,5,5,5,2,24,18,19,0,21,16,8,25,6,1645.txt
0,0,24,0,7,0,0,18,0,25,18,21,18,25,18,18,12,20,16,16,15,14,14,14,11,14,19,5,17,3,17,8,7,7,0,2,6,0,0,13,4,4,10,10,19,3,3,3,3,3,3,0,3,3,3,0,14,15,14,25,14,4,27,4,4,1647.txt
0,0,24,0,7,0,0,18,0,25,18,21,18,25,18,18,18,21,27,16,15,14,14,14,11,16,19,24,30,3,17,24,8,30,0,2,13,1,5,13,30,20,10,10,19,14,11,3,3,3,23,30,6,6,6,23,5,12,6,8,21,16,8,25,6,1650.txt
0,0,24,0,7,0,0,18,0,25,18,21,18,25,18,18,12,17,27,16,15,14,14,14,11,14,19,24,17,3,17,29,7,7,0,2,1,1,1,0,4,4,10,10,19,14,9,3,3,3,3,0,3,3,3,8,14,15,14,25,14,4,27,6,4,1652.txt
0,0,24,0,7,0,0,18,0,25,18,21,18,25,18,18,18,17,0,16,15,14,14,14,11,14,19,24,17,3,17,29,7,7,0,2,1,1,1,1,4,4,1,1,1,1,1,1,1,1,1,1,1,1,1,1,1,1,1,1,1,1,1,1,1,1654.txt
0,0,24,0,7,0,0,18,0,25,18,21,18,25,18,18,18,21,16,16,15,14,14,14,11,14,19,24,17,3,17,29,7,7,0,2,1,1,1,0,4,4,10,10,19,14,9,3,3,3,3,0,3,3,3,0,14,15,14,25,14,4,27,6,4,1655.txt
0,0,24,0,7,0,0,18,0,25,18,21,18,25,18,18,12,20,16,16,15,14,14,14,11,14,19,5,17,3,17,29,7,7,0,2,6,12,0,0,4,4,10,10,19,14,9,3,3,3,3,0,3,3,3,0,14,15,14,25,14,4,27,6,4,1657.txt
0,0,24,0,7,0,0,18,0,25,18,21,18,25,18,18,18,17,0,16,15,14,14,14,11,16,19,24,0,3,17,0,0,0,0,2,1,1,1,1,30,18,1,1,1,1,1,1,1,1,1,1,1,1,1,1,1,1,1,1,1,1,1,2,1,1660.txt
0,0,24,0,7,0,0,18,0,25,18,21,18,25,18,18,12,21,27,16,15,14,14,14,11,14,19,8,17,3,17,29,7,7,0,2,25,12,0,0,23,15,10,10,19,14,9,3,3,3,7,21,6,6,6,8,5,5,5,8,17,14,29,6,6,1662.txt
0,0,24,0,7,0,0,18,0,25,18,21,18,25,18,18,12,20,16,16,15,14,14,14,11,14,19,5,17,3,17,29,7,7,0,2,11,0,0,0,4,4,10,10,19,14,9,3,3,3,14,0,5,5,5,8,24,18,19,0,21,16,8,6,6,1663.txt
0,0,24,0,7,0,0,18,0,25,18,21,18,25,18,18,18,17,16,16,15,14,14,14,11,14,19,24,17,3,17,29,7,7,0,2,1,1,1,0,4,4,10,10,19,14,9,3,3,3,3,0,3,3,3,0,14,15,14,25,14,4,0,6,4,1666.txt
0,0,24,0,7,0,0,18,0,25,18,21,18,25,18,18,18,17,0,16,15,14,14,14,11,14,19,24,17,3,17,29,7,7,0,2,1,1,1,1,4,4,1,1,1,1,1,1,1,1,3,1,1,1,1,1,1,1,1,1,1,1,1,1,1,1667.txt
0,0,24,0,7,0,0,18,0,25,18,0,18,25,18,18,18,17,0,16,15,14,14,14,11,14,19,24,17,3,0,29,7,7,0,2,1,1,1,1,4,4,1,1,1,1,1,1,1,1,1,1,1,1,1,1,1,1,1,1,1,1,1,1,1,1669.txt
0,0,24,0,7,0,0,18,0,25,18,21,18,25,18,18,18,17,0,16,15,14,14,14,11,16,19,24,0,3,17,0,0,0,0,2,1,1,5,1,4,4,1,1,1,1,1,1,1,1,1,1,1,1,1,1,1,1,1,1,1,1,1,2,1,1671.txt
0,0,24,0,7,0,0,18,0,25,18,21,18,25,18,18,18,17,16,16,15,14,14,14,11,14,19,24,17,3,17,29,7,7,0,2,1,1,1,0,4,4,10,10,19,14,9,3,3,3,3,0,3,3,3,0,14,15,14,25,14,4,27,6,4,1673.txt
0,0,24,0,7,0,0,18,0,25,18,21,18,25,18,18,18,17,27,16,15,14,14,14,11,14,19,24,17,3,17,29,7,7,0,2,1,1,1,0,4,4,10,10,19,14,9,3,3,3,3,0,7,7,7,8,27,27,29,19,21,16,8,6,6,1676.txt
0,0,24,0,7,0,0,18,0,25,18,21,18,25,18,18,18,17,0,16,15,14,14,14,11,14,19,24,17,3,17,29,7,7,0,2,1,1,1,1,4,4,1,1,1,1,1,1,1,1,3,1,1,1,1,1,1,1,1,1,1,1,1,1,1,1677.txt
0,0,25,0,0,0,0,18,0,25,18,21,18,25,18,18,22,21,27,16,15,14,14,14,11,14,19,8,17,3,17,29,7,7,0,0,6,0,0,0,30,20,10,10,19,14,9,3,3,3,14,0,5,5,5,8,5,5,5,6,21,16,8,4,6,1680.txt
24,26,3,5,6,12,0,4,6,9,7,13,5,11,6,8,1,10,10,9,4,6,6,4,7,19,18,1,14,16,6,26,5,5,30,15,6,2,16,8,11,6,16,16,11,2,23,2,20,2,14,0,23,25,27,2,5,5,5,6,6,6,10,4,6,1682.txt
0,0,24,0,7,0,0,18,0,25,18,21,18,25,18,18,12,20,16,16,15,14,14,14,11,14,19,5,17,3,17,30,7,7,0,2,6,0,0,0,4,4,10,10,19,14,9,3,3,3,3,0,3,3,3,0,14,15,14,25,14,4,27,6,4,1684.txt
0,0,24,0,7,0,0,18,0,25,18,21,18,25,18,18,18,17,0,16,15,14,14,14,11,14,19,24,17,3,17,29,7,7,0,2,1,1,1,1,4,4,1,1,1,1,1,1,1,1,3,1,1,1,1,1,1,1,1,1,1,1,1,1,1,1686.txt
0,0,24,0,7,0,0,18,0,25,18,21,18,25,18,18,18,17,0,16,15,14,14,14,11,14,19,24,17,3,17,29,7,7,0,2,1,1,5,0,4,4,10,10,19,14,11,3,3,3,1,23,2,2,2,3,2,2,2,2,3,3,3,2,3,1692.txt
0,0,24,0,7,0,0,18,0,0,0,21,0,0,0,0,0,0,0,0,0,16,0,17,18,14,0,24,17,3,17,29,7,7,0,2,1,1,1,1,17,0,1,1,1,1,1,1,1,1,1,1,1,1,1,1,1,1,1,1,1,1,1,1,1,1694.txt
