0,1,2,3,4,5,6,7,8,9,10,11,12,13,14,15,16,17,18,19,20,21,22,23,24,25,26,27,28,29,30,31,32,33,34,35,36,37,38,39,40,41,42,43,44,45,filename
0,0,0,0,0,27,26,20,0,0,0,11,18,24,20,15,9,25,26,12,15,12,15,27,0,7,0,0,0,0,0,4,0,4,0,0,26,0,18,15,10,8,14,0,0,0,2.txt
1,16,22,20,24,23,3,8,6,15,16,21,3,23,6,13,24,8,11,7,26,1,5,20,28,22,7,8,26,17,20,19,19,22,28,26,20,7,11,7,13,15,24,25,30,1,5.txt
0,0,0,0,0,27,26,20,0,0,0,11,18,24,20,15,9,25,9,12,3,15,15,28,0,7,0,0,0,0,0,4,0,4,26,0,26,0,18,15,10,8,14,13,16,24,9.txt
0,0,0,0,0,27,26,20,0,0,0,11,18,24,20,15,9,25,11,7,15,12,5,20,28,7,27,21,30,0,0,4,0,4,0,0,26,0,18,15,10,8,10,0,0,0,12.txt
0,0,0,0,0,27,26,20,0,0,0,11,18,24,20,15,9,25,26,12,15,12,15,27,0,7,0,0,0,0,0,4,0,4,30,0,26,0,18,15,10,8,14,2,16,24,14.txt
0,0,0,0,0,27,26,28,0,0,0,11,21,0,22,15,19,0,26,12,0,0,15,18,0,9,27,21,30,4,30,21,5,17,0,9,10,9,14,4,10,8,18,0,0,9,16.txt
0,0,0,0,0,27,26,20,0,0,0,11,18,24,20,15,9,25,26,12,15,12,15,18,0,7,27,21,30,0,0,4,0,4,0,0,26,0,18,15,10,8,10,0,0,8,17.txt
0,0,0,0,0,27,26,20,0,0,0,11,18,24,20,15,9,25,26,12,15,12,15,27,7,7,0,0,0,0,0,4,0,4,0,0,26,0,18,15,10,8,14,0,0,0,21.txt
0,0,0,0,0,27,26,20,0,0,0,11,18,24,20,15,9,25,26,12,15,12,10,27,7,7,0,0,0,0,0,4,0,4,0,0,26,0,18,15,10,8,14,0,0,8,23.txt
0,0,0,0,0,27,26,20,0,0,0,11,18,24,20,15,9,23,26,12,0,0,10,18,0,7,27,21,30,0,0,6,0,19,2,0,26,0,18,15,10,8,10,2,16,28,24.txt
0,0,0,0,0,27,26,20,0,0,0,11,18,24,20,15,9,23,26,12,15,12,15,27,0,7,0,0,0,0,0,4,0,4,6,3,3,3,3,3,10,8,14,13,16,24,26.txt
0,0,0,0,0,27,26,20,0,0,0,11,18,24,20,15,9,0,26,12,0,0,15,18,0,7,27,21,30,0,0,21,0,0,0,0,26,0,18,15,10,8,10,0,0,0,28.txt
0,0,0,0,0,27,26,20,0,0,0,11,18,24,20,0,9,25,26,0,15,12,15,22,0,19,25,19,28,0,0,4,0,4,6,0,26,0,18,15,10,8,9,17,28,29,30.txt
1,5,14,16,13,3,10,6,21,16,7,30,6,20,11,16,11,8,23,11,21,22,7,5,21,27,24,17,15,19,6,18,9,15,21,19,13,27,11,23,13,15,24,21,24,17,32.txt
0,0,0,0,0,27,26,20,0,0,0,11,18,24,20,15,9,25,26,12,15,12,15,27,0,7,0,0,0,0,0,4,0,4,30,0,26,0,18,15,10,8,14,2,16,27,34.txt
0,0,0,0,0,27,26,20,0,0,0,11,18,24,20,15,9,25,26,12,15,12,15,27,7,7,0,0,0,6,0,4,8,4,0,11,10,15,21,12,10,8,14,0,0,10,36.txt
0,0,0,0,0,27,26,20,0,0,0,11,18,24,20,15,9,25,26,12,15,12,15,27,0,7,0,0,0,0,0,4,0,4,22,0,26,0,18,15,10,8,14,2,16,24,40.txt
0,0,5,0,0,27,26,20,0,0,0,11,18,24,20,15,9,0,26,12,0,0,15,18,0,7,28,19,28,0,0,0,0,0,0,0,26,0,18,15,10,8,18,0,0,0,41.txt
0,0,0,0,0,27,26,20,0,0,0,11,18,24,20,15,9,25,26,12,15,12,15,27,0,7,0,0,0,0,0,4,0,4,0,0,26,0,18,15,10,8,14,0,0,0,49.txt
0,0,0,0,0,27,26,20,0,0,0,11,18,24,20,15,9,25,26,12,15,12,15,27,0,7,0,0,0,0,0,4,0,4,0,0,26,0,18,15,10,8,14,0,0,0,53.txt
0,0,0,0,0,27,26,20,0,0,0,11,18,24,20,15,9,0,26,12,0,0,15,27,0,7,0,0,0,0,0,21,0,0,0,0,26,0,18,15,10,8,14,0,0,0,55.txt
0,0,0,0,0,28,26,20,0,0,0,11,18,24,20,15,9,25,8,21,15,12,23,14,18,7,6,9,3,8,28,4,13,4,6,3,3,3,3,3,10,8,17,1,28,24,57.txt
0,0,0,0,0,27,26,20,0,0,0,11,18,24,20,15,9,25,8,20,19,7,23,14,18,7,9,27,3,29,28,4,20,4,22,11,23,15,21,12,10,8,19,2,16,2,60.txt
1,0,17,1,8,30,1,7,18,6,22,1,15,17,7,15,4,25,26,12,15,12,15,27,0,7,6,9,18,8,11,4,21,4,27,30,29,28,25,27,10,8,14,13,28,26,61.txt
0,0,0,0,0,27,26,20,0,0,0,11,18,24,20,15,9,25,26,12,15,12,15,27,0,7,0,0,0,6,0,4,8,4,2,11,23,15,21,12,10,8,6,17,19,2,63.txt
1,17,17,1,5,4,17,6,21,12,22,1,15,17,6,1,29,28,26,12,0,30,15,18,0,12,6,9,18,8,7,18,21,15,6,3,3,3,3,3,17,20,29,1,28,26,65.txt
1,17,22,11,24,23,1,7,18,15,4,8,28,9,6,9,13,9,10,9,18,1,7,16,10,12,24,30,18,29,18,8,26,10,19,25,17,7,11,7,26,30,29,1,28,1,68.txt
0,0,0,0,0,27,26,20,0,0,0,11,18,24,20,15,9,25,26,12,15,12,15,27,0,7,0,0,0,0,0,4,0,4,0,0,26,0,18,15,10,8,14,0,0,0,71.txt
0,0,0,0,0,27,26,20,0,0,0,11,18,26,25,15,20,25,26,12,15,12,15,18,0,7,27,21,30,4,5,4,5,4,10,9,10,9,14,12,10,8,10,29,28,30,72.txt
0,0,0,0,0,27,26,28,0,0,0,11,21,0,0,15,0,0,8,21,0,0,14,10,17,0,27,21,30,6,0,21,4,0,0,8,23,6,6,4,10,8,2,0,0,0,76.txt
0,0,0,0,0,27,26,20,0,0,0,11,18,24,20,15,9,25,26,12,15,12,16,27,22,7,0,0,0,0,0,4,0,4,0,0,26,0,18,15,10,8,14,0,0,11,78.txt
0,0,0,0,0,27,26,20,0,0,0,11,18,24,20,15,9,25,26,12,15,12,10,18,7,7,27,21,30,0,0,4,0,4,9,0,26,0,18,15,22,22,10,6,6,0,81.txt
0,0,0,0,0,27,26,20,0,0,0,11,18,24,20,15,9,0,26,12,0,0,15,27,0,7,0,0,0,0,0,0,0,0,0,0,26,0,18,15,10,8,5,0,0,0,84.txt
0,0,0,0,0,27,26,20,0,0,0,11,18,24,20,15,9,0,26,12,0,0,15,22,0,7,28,19,28,0,0,0,0,0,0,0,26,0,18,15,10,8,17,0,0,0,86.txt
0,0,0,0,0,27,26,20,0,0,0,11,18,24,20,15,9,25,26,12,15,12,15,18,0,7,27,21,30,0,0,4,0,4,25,0,26,0,18,15,10,8,10,17,16,27,89.txt
0,0,0,0,0,27,26,20,0,0,0,11,18,24,20,15,9,25,26,12,15,12,15,27,0,7,0,0,0,0,0,4,0,4,0,0,26,0,18,15,10,8,14,0,0,0,90.txt
0,0,0,0,0,27,0,28,0,0,0,0,21,0,0,6,0,0,27,12,0,0,15,27,0,0,0,0,0,0,0,21,0,0,0,0,26,0,18,15,0,12,19,0,0,0,92.txt
1,5,14,1,8,3,17,6,21,6,22,1,15,17,8,1,3,6,4,4,7,28,23,4,18,13,6,12,27,8,6,16,6,11,1,7,1,16,8,11,1,28,1,2,16,22,95.txt
0,0,5,0,0,27,0,20,0,0,0,0,18,24,20,27,9,25,27,12,15,12,10,18,7,7,27,21,30,0,29,4,2,4,9,0,26,0,18,15,21,26,10,6,6,10,97.txt
0,0,0,0,0,27,26,20,0,0,0,11,18,24,20,15,9,26,26,12,15,12,15,27,0,7,0,0,0,0,0,28,0,3,7,0,26,0,18,15,30,5,14,2,16,30,98.txt
0,0,0,0,0,27,26,28,0,0,0,11,21,0,0,15,0,0,8,11,0,0,23,12,18,0,0,0,0,0,0,21,0,0,0,0,26,0,18,15,10,8,14,0,0,0,100.txt
0,0,0,0,0,27,26,20,0,0,0,11,18,24,20,15,9,25,26,12,15,12,15,27,0,7,0,0,0,0,0,4,0,4,0,0,26,0,18,15,10,8,14,0,0,0,102.txt
0,0,0,0,0,27,26,20,0,0,0,11,18,24,20,15,9,25,26,12,15,12,2,27,19,7,0,0,0,0,0,4,0,4,0,0,26,0,18,15,10,8,14,0,0,0,105.txt
0,0,0,0,0,27,26,20,0,0,0,11,18,24,20,15,9,25,26,12,15,12,15,27,0,7,0,0,0,0,0,4,0,4,0,0,26,0,18,15,10,8,14,0,0,0,108.txt
0,0,0,0,0,27,26,20,0,25,0,11,18,24,20,15,9,25,8,28,24,23,20,13,10,7,4,4,13,5,0,4,16,4,8,14,4,29,6,6,10,8,0,5,5,8,110.txt
0,0,0,0,0,27,26,20,0,0,0,11,18,24,20,15,9,23,22,21,0,30,23,16,18,7,6,9,3,8,8,6,13,20,22,23,8,16,12,22,10,8,19,27,28,24,112.txt
30,21,0,27,26,15,19,16,27,8,9,24,16,7,15,5,21,7,25,18,27,19,10,18,7,29,2,25,8,22,14,2,29,24,9,2,2,2,22,2,22,22,2,6,6,0,114.txt
30,21,5,29,28,17,19,12,5,9,26,24,10,14,16,18,22,17,18,2,11,14,2,26,7,15,2,25,8,22,23,2,2,27,8,15,21,2,2,13,20,23,10,5,5,0,116.txt
0,0,0,0,0,27,26,20,0,0,0,11,18,24,20,15,9,23,26,12,0,0,15,27,0,7,0,0,0,0,0,6,0,20,22,19,6,27,11,19,10,8,14,17,28,17,118.txt
1,8,22,17,24,4,1,7,18,15,17,4,13,4,6,9,3,29,21,24,23,28,7,30,10,12,3,10,18,12,8,18,26,15,1,24,8,27,17,19,17,20,7,25,17,30,121.txt
0,0,0,0,0,27,26,20,0,0,0,11,18,24,20,15,9,25,26,12,15,12,15,27,0,7,0,0,0,0,0,4,0,4,6,0,26,0,18,15,10,8,14,2,16,14,123.txt
0,0,0,0,0,27,26,20,0,0,0,11,18,24,20,15,9,25,26,12,15,12,10,27,7,7,0,0,0,0,0,4,0,4,9,0,26,0,18,15,10,8,14,6,6,0,124.txt
0,0,0,0,0,27,26,20,0,0,0,11,18,24,20,15,9,25,26,12,15,12,15,27,0,7,0,0,0,0,0,4,0,4,0,0,26,0,18,15,10,8,14,0,0,0,126.txt
0,0,0,0,0,27,26,20,0,0,0,11,18,24,20,15,9,25,26,12,15,12,15,27,0,7,0,0,0,0,0,4,0,4,0,0,26,0,18,15,10,8,14,0,0,0,128.txt
0,0,0,0,0,27,0,28,0,0,0,0,21,0,0,29,0,23,27,12,0,0,15,27,0,0,0,0,0,0,0,23,0,20,21,0,26,0,18,15,11,12,19,27,28,24,130.txt
30,21,0,27,26,17,19,11,29,8,9,24,2,7,15,19,21,18,20,2,2,11,10,27,7,15,15,5,8,24,13,10,29,24,9,10,12,13,22,10,2,14,14,6,6,0,132.txt
0,0,0,0,0,27,26,20,0,0,0,11,18,24,20,15,9,25,26,12,15,12,15,27,0,7,0,0,0,0,0,4,0,4,2,3,3,3,3,3,10,8,14,17,16,24,135.txt
0,0,0,0,0,27,0,23,0,0,0,0,19,0,0,6,0,0,8,21,12,7,3,10,18,0,27,21,30,6,0,21,5,0,0,9,23,9,14,4,11,12,2,0,0,0,137.txt
0,0,0,0,0,27,26,20,0,0,0,11,18,24,20,15,9,25,8,11,15,12,22,14,11,7,9,30,26,29,11,4,18,4,22,6,24,26,10,25,10,8,10,17,28,30,141.txt
0,0,0,0,0,27,26,20,0,0,0,11,18,24,20,15,9,25,26,12,15,12,15,27,0,7,0,0,0,0,0,4,0,4,6,0,26,0,18,15,10,8,14,10,28,29,144.txt
1,0,17,1,24,25,17,6,21,15,22,1,15,17,6,15,29,22,12,6,0,30,21,15,10,7,6,18,23,8,8,24,11,19,30,19,8,21,11,30,29,21,30,17,28,27,145.txt
0,0,0,0,0,27,26,20,0,0,0,11,18,24,20,15,9,25,26,12,15,12,15,27,0,7,0,0,0,0,0,4,0,4,0,0,26,0,18,15,10,8,0,0,0,10,147.txt
0,0,0,0,0,27,26,20,0,0,0,11,18,24,20,15,9,25,26,12,15,12,11,27,7,7,0,0,0,0,0,4,0,4,9,0,26,0,18,15,10,8,14,6,6,0,149.txt
0,0,0,0,0,27,26,20,0,0,0,11,18,24,20,15,9,25,26,12,15,12,15,27,0,7,0,0,0,0,0,4,0,4,2,3,3,3,3,3,10,8,14,2,16,15,151.txt
0,0,17,1,24,12,17,6,8,7,22,1,15,17,9,15,13,0,8,10,6,24,20,13,10,0,9,27,14,29,26,21,11,0,0,0,26,0,18,15,10,8,0,0,0,0,154.txt
0,0,0,0,0,27,26,20,0,0,0,11,18,24,20,15,9,25,26,12,15,12,15,27,0,7,0,0,0,0,0,4,0,4,0,0,26,0,18,15,10,8,14,0,0,0,156.txt
0,0,0,0,0,27,26,20,0,0,0,11,18,24,20,0,9,25,26,26,15,12,15,22,0,19,28,19,28,0,0,4,0,4,6,3,3,3,3,3,10,8,17,17,28,29,158.txt
0,0,0,0,0,27,26,20,0,0,0,11,18,24,20,15,9,25,26,12,15,12,10,27,7,7,0,0,0,6,0,4,4,4,9,8,23,6,6,12,10,8,14,6,6,9,160.txt
0,0,0,0,0,27,26,28,0,0,0,11,21,0,0,15,0,0,26,12,0,0,15,27,0,0,0,0,0,0,0,21,0,0,0,0,26,0,18,15,10,8,14,0,0,0,161.txt
0,0,0,0,0,27,26,20,0,0,0,11,18,24,20,15,9,26,26,12,15,12,15,27,0,7,0,0,0,0,0,28,0,3,6,0,26,0,18,15,30,5,5,2,16,26,163.txt
0,0,0,0,0,27,26,28,0,0,0,11,21,0,0,15,0,23,8,3,0,0,14,29,17,0,0,0,0,0,0,6,0,20,1,0,26,0,18,15,10,8,14,12,19,24,165.txt
0,0,0,0,0,27,26,20,0,0,0,11,18,24,20,15,9,25,26,12,15,12,15,27,0,7,6,9,3,8,28,4,21,4,6,3,3,3,3,3,10,8,14,2,16,24,167.txt
0,0,0,0,0,27,26,20,0,0,0,11,18,24,20,15,9,25,26,12,15,12,15,27,0,7,0,0,0,0,0,4,0,4,2,3,3,3,3,3,10,8,19,2,3,24,169.txt
0,0,0,0,0,27,0,28,0,0,0,0,21,0,0,6,0,0,27,12,0,0,15,27,0,0,0,0,0,0,0,21,0,0,0,0,26,0,18,15,11,12,14,0,0,0,171.txt
0,0,0,0,0,27,26,25,0,0,0,11,24,0,29,15,26,22,26,12,0,30,15,22,0,0,25,22,28,0,0,15,0,6,15,29,25,28,25,26,10,8,17,1,28,26,173.txt
0,0,0,0,0,27,0,28,0,0,0,0,21,0,0,27,0,22,27,12,0,0,15,18,0,0,27,21,30,0,0,23,0,18,2,0,26,0,18,15,11,12,10,17,16,15,175.txt
0,0,0,0,0,27,26,28,0,0,0,11,24,0,29,15,26,23,26,12,0,30,15,18,0,0,9,29,16,29,26,6,11,20,22,6,24,22,11,29,10,8,18,12,28,30,177.txt
0,0,0,0,0,27,26,28,0,0,0,11,24,0,29,15,26,23,8,21,0,30,3,3,18,0,9,27,3,29,26,6,13,6,3,6,8,22,11,29,10,8,10,17,28,13,179.txt
0,0,0,0,0,27,0,28,0,0,0,0,21,0,0,29,0,23,8,10,1,7,9,14,29,0,27,21,30,0,0,6,0,20,22,0,26,0,18,15,0,25,15,17,29,2,182.txt
0,0,0,0,0,27,26,20,0,0,0,11,18,24,20,15,9,25,26,12,15,12,15,27,0,7,0,0,0,0,0,4,0,4,7,0,26,0,18,15,10,8,14,12,16,24,184.txt
0,0,0,0,0,27,26,20,0,0,0,11,18,24,20,15,9,25,26,12,15,12,15,27,0,7,0,0,0,0,0,4,0,4,0,0,26,0,18,15,10,8,14,0,0,0,188.txt
0,0,0,0,0,27,26,20,0,0,0,11,18,24,20,15,9,25,26,12,15,12,15,27,0,7,0,0,0,0,0,4,0,4,0,0,26,0,18,15,10,8,14,0,0,0,189.txt
0,0,0,0,0,27,26,20,0,0,0,11,18,24,20,15,9,25,26,12,15,12,10,18,7,7,25,22,28,0,0,4,0,4,6,0,26,0,18,15,2,14,10,2,16,26,191.txt
26,17,22,11,13,9,10,5,7,13,7,7,6,21,6,22,11,9,12,9,18,21,19,9,10,12,24,30,18,29,18,18,26,15,21,17,13,17,30,22,15,17,25,27,28,17,194.txt
0,0,0,0,0,27,26,20,0,0,0,11,18,24,20,15,9,25,8,7,15,12,5,10,28,7,0,0,0,6,12,4,8,4,22,11,23,15,21,12,10,8,14,12,19,2,197.txt
0,0,0,0,0,27,0,28,0,0,0,0,21,0,0,27,0,23,8,11,0,0,22,11,11,0,18,27,16,29,26,6,11,6,21,6,13,26,11,19,11,25,17,17,28,30,199.txt
0,0,0,0,0,27,26,20,0,0,0,11,18,24,20,15,9,25,26,12,15,12,15,27,0,7,0,0,0,6,12,4,8,4,0,11,23,15,21,12,10,8,14,0,0,0,203.txt
0,0,0,0,0,27,26,20,0,0,0,11,18,24,20,15,9,25,26,12,15,12,15,27,0,7,0,0,0,0,0,4,0,4,0,0,26,0,18,15,10,8,14,0,0,0,204.txt
0,0,0,0,0,27,26,20,0,0,0,11,18,24,20,15,9,25,26,12,15,12,15,27,0,7,0,0,0,0,0,4,0,4,6,0,26,0,18,15,10,8,14,2,16,29,209.txt
0,0,0,0,0,27,26,28,0,0,0,11,21,0,0,15,0,0,26,12,0,0,15,27,0,0,0,0,0,0,0,21,0,0,0,0,26,0,18,15,30,29,14,0,0,0,210.txt
0,0,0,0,0,27,26,20,0,0,0,11,18,24,20,15,9,25,26,12,15,12,15,27,0,7,0,0,0,6,0,4,8,4,0,11,23,15,21,12,10,8,19,0,0,0,212.txt
0,0,0,0,0,27,26,20,0,0,0,11,18,24,20,15,9,25,26,12,15,12,12,27,12,7,0,0,0,0,0,4,0,4,25,29,25,28,25,26,10,8,14,12,11,27,214.txt
1,5,14,1,13,9,12,5,7,16,22,29,15,16,11,13,24,10,11,7,30,21,5,20,27,20,21,14,23,17,18,18,12,15,29,17,17,23,13,30,25,24,29,20,17,20,217.txt
0,0,0,0,0,27,20,28,0,0,0,0,21,0,0,6,0,0,22,11,0,0,3,15,18,0,27,21,30,0,0,21,0,0,0,0,26,0,18,15,0,25,17,0,0,0,219.txt
0,0,0,0,0,27,26,20,0,0,0,11,18,24,20,15,9,25,26,12,15,12,15,27,0,7,0,0,0,6,0,4,8,4,0,11,23,15,21,4,10,8,14,0,0,0,220.txt
30,21,0,29,2,15,2,2,20,2,2,2,16,27,17,14,2,16,2,18,10,14,2,22,2,2,16,25,8,15,16,13,2,5,5,2,2,12,16,2,23,22,9,4,2,0,222.txt
0,0,0,0,0,27,26,20,0,0,0,11,18,24,20,15,9,25,26,12,15,12,15,27,0,7,0,0,0,6,12,4,8,4,0,11,23,15,21,12,10,8,14,0,0,9,225.txt
0,0,0,0,0,27,26,20,0,0,0,11,18,24,20,15,9,25,26,12,15,12,15,27,0,7,0,0,0,0,0,4,0,4,0,0,26,0,18,15,10,8,14,0,0,0,227.txt
0,0,0,0,0,27,26,20,0,0,0,11,18,24,20,15,9,25,26,12,15,12,15,27,0,7,0,0,0,0,0,4,0,4,0,0,26,0,18,15,10,8,14,0,0,0,229.txt
0,0,0,0,0,27,0,28,0,0,0,0,21,0,0,6,0,0,27,12,0,0,15,27,0,0,0,0,0,0,0,21,0,0,0,0,26,0,18,15,11,25,14,0,0,0,231.txt
1,17,17,1,13,30,17,6,21,12,22,1,15,17,3,1,3,4,8,3,7,7,23,29,18,12,6,9,3,8,8,27,10,26,1,23,7,16,11,19,17,20,7,10,16,24,236.txt
0,0,0,0,0,27,26,20,0,0,0,11,18,24,20,15,9,25,26,12,15,12,10,27,7,7,0,0,0,0,0,4,0,4,0,0,26,0,18,15,10,8,14,0,0,0,241.txt
0,0,0,0,0,27,26,28,0,0,0,11,21,0,0,15,0,0,8,21,0,0,22,14,18,0,0,0,0,0,0,21,0,0,8,0,26,0,18,15,10,8,19,5,5,0,242.txt
0,0,0,0,0,27,26,20,0,0,0,11,18,24,20,15,9,23,26,12,0,30,15,27,0,7,0,0,0,0,0,6,0,18,2,3,3,3,3,3,10,8,14,20,28,15,245.txt
30,2,5,29,2,15,2,2,2,2,2,2,2,27,17,19,2,27,2,18,29,2,2,27,2,2,2,25,8,15,2,2,2,5,15,2,2,2,24,2,19,22,5,17,28,26,247.txt
30,21,5,29,28,17,19,12,0,0,0,24,18,24,20,14,9,16,19,12,15,12,10,18,7,16,16,6,9,2,16,4,17,4,9,0,26,0,18,15,22,22,10,6,6,0,249.txt
30,21,0,27,26,17,18,12,27,8,9,24,2,7,15,19,21,27,25,18,13,11,10,27,4,30,15,5,8,24,15,10,29,24,9,16,21,13,22,13,2,14,14,6,6,0,250.txt
0,0,0,0,0,27,26,20,0,0,0,11,18,24,20,15,9,25,26,12,15,12,15,27,0,7,0,0,0,0,0,4,0,4,0,0,26,0,18,15,10,8,14,0,0,0,252.txt
1,17,17,1,24,12,17,6,21,7,22,1,15,17,9,25,13,4,8,19,20,20,20,29,11,12,3,30,1,29,3,8,6,10,1,6,24,16,10,11,14,16,7,20,28,30,256.txt
0,0,0,0,0,27,26,20,0,0,0,11,18,24,20,15,9,25,26,12,15,12,2,27,19,7,0,0,0,0,0,4,0,4,5,0,26,0,18,15,10,8,14,4,2,0,258.txt
0,0,0,0,0,27,26,20,0,0,0,11,18,24,20,15,9,25,26,12,15,12,15,27,0,7,0,0,0,0,0,4,0,4,1,0,26,0,18,15,10,8,14,10,16,24,260.txt
0,0,0,0,0,27,26,20,0,0,0,11,18,24,20,15,9,0,26,12,0,0,15,22,0,7,28,22,28,0,0,0,0,0,0,0,26,0,18,15,10,8,17,0,0,0,261.txt
0,0,0,0,0,27,26,28,0,0,0,11,20,0,21,15,18,0,8,20,0,0,9,11,3,8,0,0,0,7,4,0,3,16,0,4,9,4,4,4,10,8,19,0,0,8,264.txt
0,0,0,0,0,27,26,20,0,0,0,11,18,24,20,15,9,25,26,12,15,12,15,27,0,7,0,0,0,0,0,4,0,4,0,0,26,0,18,15,10,8,14,0,0,0,269.txt
0,0,0,0,0,27,0,28,0,0,0,14,24,0,29,30,27,22,8,5,0,30,9,13,9,0,18,27,4,29,26,15,20,19,3,18,8,22,30,29,12,13,0,17,28,24,272.txt
0,0,0,0,0,27,26,20,0,0,0,11,18,24,20,15,9,25,8,21,15,12,22,11,21,7,0,0,0,0,0,4,0,4,0,0,26,0,18,15,10,8,19,0,0,0,274.txt
0,0,0,0,0,0,26,20,0,0,0,11,18,24,20,0,9,13,15,26,3,3,2,25,2,6,25,22,28,6,5,3,16,28,30,14,10,29,6,6,5,29,9,23,3,27,276.txt
0,0,0,0,0,27,26,20,0,0,0,11,18,24,20,15,9,25,1,1,15,12,22,1,11,7,0,0,0,0,0,4,0,4,7,0,26,0,18,15,10,8,14,2,16,22,280.txt
0,0,0,0,0,27,26,28,0,0,0,11,21,0,0,15,0,0,26,12,0,0,15,27,0,0,0,0,0,0,0,21,0,0,0,0,26,0,18,15,10,8,14,0,0,0,282.txt
0,0,0,0,0,27,26,20,0,0,0,11,18,24,20,15,9,25,26,12,15,12,10,18,0,7,27,21,30,0,0,4,0,4,0,0,26,0,18,15,10,8,10,0,0,0,283.txt
0,0,0,0,0,27,26,20,0,0,0,11,18,24,20,15,9,25,26,12,15,12,12,27,5,7,0,0,0,0,0,4,0,4,25,30,29,28,25,27,22,22,14,2,16,15,284.txt
0,0,0,0,0,27,26,20,0,0,0,11,18,24,20,15,9,25,26,12,15,12,10,27,0,7,0,0,0,0,0,4,0,4,6,0,26,0,18,15,10,8,14,20,28,26,286.txt
0,0,0,0,0,27,26,20,0,0,0,11,18,24,20,15,9,25,26,12,15,12,15,22,0,7,25,19,28,0,0,4,0,4,0,0,26,0,18,15,10,8,17,0,0,0,288.txt
0,0,0,0,0,27,26,28,0,0,0,11,21,0,0,15,0,23,26,12,0,0,2,27,12,0,0,0,0,0,27,6,2,20,27,29,25,28,25,26,10,8,14,10,28,26,290.txt
0,0,0,0,0,27,26,20,0,0,0,11,18,24,20,15,9,25,26,12,15,12,10,18,5,7,27,21,30,0,0,4,0,4,8,0,26,0,18,15,22,22,17,5,5,0,293.txt
0,0,0,0,0,27,26,20,0,0,0,11,18,24,20,15,9,25,26,12,15,12,15,27,0,7,0,0,0,0,0,4,0,4,0,0,26,0,18,15,10,8,14,0,0,0,295.txt
28,5,14,16,16,3,1,7,17,21,17,7,28,6,8,8,11,5,23,27,18,22,17,9,10,27,24,3,18,3,8,9,15,11,21,17,14,17,11,30,1,1,1,30,24,17,297.txt
0,0,0,0,0,27,26,20,0,0,0,11,18,24,20,15,9,25,26,12,15,12,15,27,0,7,0,0,0,0,0,4,0,4,0,0,26,0,18,15,10,8,14,0,0,0,300.txt
0,0,0,0,0,27,26,20,0,0,0,11,18,24,20,15,9,25,26,12,15,12,15,27,0,7,0,0,0,0,0,4,0,4,0,0,26,0,18,15,10,8,14,0,0,0,303.txt
0,0,0,0,0,27,26,20,0,0,0,11,18,24,20,15,9,25,26,12,15,12,15,27,0,7,6,9,1,8,3,4,9,4,27,29,25,28,25,26,10,8,5,13,28,29,305.txt
0,0,5,0,0,27,26,20,0,0,0,11,18,24,20,15,9,23,8,11,0,30,23,29,18,7,6,9,1,8,3,23,21,20,6,21,8,16,10,11,10,8,16,17,28,26,307.txt
0,0,6,0,0,27,0,28,0,0,0,0,21,0,0,27,0,23,27,12,0,0,10,18,7,0,27,21,30,0,0,21,0,0,0,0,26,0,18,15,0,13,10,0,0,0,311.txt
0,0,0,0,0,27,26,20,0,0,0,11,18,24,20,15,9,25,8,11,15,12,23,14,18,7,6,9,14,8,28,4,18,4,30,6,8,16,11,22,10,8,14,12,28,26,313.txt
0,0,0,0,0,27,26,20,0,0,0,11,18,24,20,15,9,0,26,12,0,0,15,27,0,7,0,0,0,6,0,21,8,17,0,11,10,15,21,12,10,8,14,0,0,10,318.txt
0,0,0,0,0,27,26,28,0,0,0,11,21,0,0,15,0,0,8,21,0,0,9,14,18,0,0,0,0,4,0,21,8,0,0,11,23,15,21,4,10,8,14,0,0,0,320.txt
17,5,14,16,13,3,12,6,21,16,18,7,4,6,8,8,24,20,4,4,26,5,5,4,28,22,21,14,18,26,28,26,23,7,28,7,30,8,8,8,4,4,4,3,24,17,322.txt
17,5,14,16,13,3,12,6,21,16,18,7,4,6,8,8,24,20,4,4,26,5,5,4,28,22,21,14,18,26,28,26,23,7,28,7,30,8,8,8,4,4,4,3,24,17,323.txt
1,0,16,1,22,4,4,6,8,4,1,29,1,1,6,0,13,22,3,19,6,16,20,3,11,6,3,27,27,29,6,24,9,6,1,1,8,1,17,1,10,8,14,17,28,30,324.txt
0,0,0,0,0,27,26,20,0,0,0,11,18,24,20,15,9,25,26,12,15,12,15,18,0,7,27,21,30,0,0,4,0,4,0,0,26,0,18,15,10,8,11,0,0,0,326.txt
0,0,0,0,0,27,26,20,0,0,0,11,18,24,20,15,9,25,26,12,15,12,15,27,0,7,0,0,0,0,0,4,0,4,0,0,26,0,18,15,10,8,14,0,0,0,328.txt
0,0,0,0,0,27,0,28,0,0,0,0,21,0,0,6,0,0,27,12,0,0,15,18,0,0,27,21,30,0,0,21,0,0,0,0,26,0,18,15,11,25,10,0,0,0,329.txt
0,0,0,0,0,27,26,20,0,0,0,11,18,24,20,15,9,25,8,11,15,12,22,14,11,7,0,0,0,0,0,4,0,4,0,0,26,0,18,15,10,8,19,0,0,0,333.txt
0,0,0,0,0,27,26,20,29,8,26,11,16,2,2,15,21,23,26,29,2,2,2,22,2,7,27,21,30,0,0,13,0,29,22,23,8,26,11,18,2,14,9,17,19,30,335.txt
0,0,0,0,0,27,26,20,0,0,0,11,18,24,20,15,9,25,26,12,15,12,15,27,0,7,0,0,0,0,0,4,0,4,0,0,26,0,18,15,10,8,14,0,0,0,337.txt
30,21,9,29,2,15,2,19,13,2,13,25,16,28,16,14,2,16,2,18,10,13,11,24,5,17,2,25,8,22,23,13,17,5,8,2,2,2,23,2,22,22,16,5,5,12,341.txt
0,0,0,0,0,27,26,20,0,0,0,11,18,24,20,15,9,25,26,12,15,12,2,22,5,7,25,22,28,0,0,4,0,4,26,30,29,28,25,27,10,8,2,2,16,26,342.txt
0,0,0,0,0,27,26,20,0,0,0,11,18,24,20,15,9,25,26,12,15,12,15,27,7,7,0,0,0,0,0,4,0,4,0,0,26,0,18,15,10,8,14,0,0,0,344.txt
0,0,0,0,0,27,26,20,0,0,0,11,18,24,20,15,9,25,26,12,15,12,15,27,0,7,0,0,0,0,0,4,0,4,0,0,26,0,18,15,10,8,14,0,0,0,347.txt
0,0,0,0,0,27,26,20,0,0,0,11,18,24,20,15,9,25,26,12,15,12,15,27,22,7,0,0,0,0,0,4,0,4,0,0,26,0,18,15,10,8,14,0,0,11,349.txt
0,0,0,0,0,27,26,20,0,0,0,11,18,24,20,15,9,25,26,12,15,12,15,28,0,7,0,0,0,0,0,4,0,4,26,0,26,0,18,15,10,8,14,20,16,29,352.txt
0,0,0,0,0,27,26,20,0,0,0,11,18,24,20,15,9,25,26,12,15,12,15,27,0,7,0,0,0,0,0,4,0,4,0,0,26,0,18,15,10,8,14,0,0,0,354.txt
0,0,0,0,0,27,26,20,0,0,0,11,18,24,20,15,9,25,26,12,15,12,15,27,5,7,0,0,0,0,0,4,0,4,0,0,26,0,18,15,10,8,14,0,0,0,358.txt
0,0,0,0,0,27,26,28,0,0,0,11,21,0,0,15,0,0,26,12,0,0,15,22,0,0,25,22,28,0,0,21,0,0,0,0,26,0,18,15,10,8,18,0,0,0,360.txt
0,0,0,0,0,27,26,20,0,0,0,11,18,24,20,15,9,25,26,12,15,12,15,27,5,7,0,0,0,0,0,4,0,4,0,0,26,0,18,15,10,8,14,0,0,0,362.txt
0,0,0,0,0,27,26,20,0,0,0,11,18,24,20,15,9,25,26,12,15,12,15,22,0,7,27,21,30,0,0,4,0,4,0,0,26,0,18,15,10,8,16,0,0,0,364.txt
0,0,0,0,0,27,26,28,0,0,0,11,21,0,0,15,0,0,26,12,0,0,15,22,0,0,28,19,28,0,0,0,0,0,0,0,26,0,18,15,10,8,17,0,0,0,365.txt
0,0,0,0,0,27,26,28,0,0,0,11,21,0,0,15,0,23,26,12,0,0,15,18,0,0,27,21,30,0,0,23,0,18,22,0,26,0,18,15,10,8,10,17,16,20,368.txt
0,0,0,0,0,27,26,20,0,0,0,11,18,24,20,15,9,25,26,12,15,12,15,27,0,7,0,0,0,0,0,4,0,4,30,3,3,3,3,3,10,8,14,12,28,15,369.txt
0,0,0,0,0,27,26,20,0,0,0,11,18,24,20,15,9,25,26,12,15,12,15,27,0,7,0,0,0,0,0,4,0,4,0,0,26,0,18,15,10,8,14,0,0,0,371.txt
1,1,1,11,3,3,1,1,1,17,17,30,4,20,8,8,12,15,4,4,18,5,14,4,17,3,24,3,18,3,7,26,23,25,21,7,14,8,8,8,4,4,4,27,28,17,375.txt
0,0,0,0,0,27,26,20,0,0,0,11,18,24,20,15,9,25,26,12,15,12,11,27,0,7,0,0,0,0,0,4,0,4,0,0,26,0,18,15,10,8,14,0,0,0,377.txt
0,0,0,0,0,27,26,20,0,0,0,11,18,24,20,15,9,23,26,12,15,12,15,27,0,7,0,0,0,0,0,4,0,4,2,3,3,3,3,3,10,8,14,12,28,24,380.txt
1,6,14,16,13,9,10,6,21,16,28,7,28,6,11,8,5,9,14,15,17,21,6,5,10,28,17,17,18,19,28,18,14,15,18,22,14,20,13,30,17,20,29,24,4,16,382.txt
1,5,14,1,24,4,17,6,21,16,22,1,15,17,8,26,13,4,8,11,20,24,22,14,11,7,9,3,14,3,11,8,11,10,22,21,8,26,10,25,17,20,7,17,28,30,385.txt
15,17,22,16,3,9,1,5,7,15,28,5,28,5,6,22,11,9,21,24,18,28,20,30,14,12,24,10,15,12,6,18,9,15,21,7,14,21,17,23,29,30,29,21,17,30,386.txt
0,0,0,0,0,27,26,20,0,0,0,11,18,24,20,15,9,0,26,12,15,12,15,27,0,7,0,0,0,0,0,4,0,4,0,0,26,0,18,15,10,8,14,0,0,0,387.txt
0,0,0,0,0,27,26,20,0,0,0,11,18,24,20,15,9,25,26,12,15,12,12,27,7,7,0,0,0,0,0,4,0,4,6,0,26,0,18,15,10,8,14,10,16,29,391.txt
0,0,0,0,0,27,26,20,0,0,0,11,18,24,20,15,9,25,26,12,15,12,2,27,19,7,0,0,0,0,0,4,0,4,5,0,26,0,18,15,10,8,14,4,2,0,394.txt
0,0,5,0,0,27,26,20,0,0,0,11,18,24,20,15,9,25,26,12,15,12,2,24,12,7,28,19,28,0,0,4,0,4,5,0,26,0,18,15,10,8,17,4,2,0,395.txt
0,0,0,0,0,27,0,28,0,0,0,0,21,0,0,6,0,0,28,12,0,0,15,27,0,0,0,0,0,0,0,21,0,0,0,0,26,0,18,15,12,0,14,0,0,0,397.txt
1,17,17,1,5,4,17,6,21,12,22,1,15,17,6,1,3,4,8,3,0,30,23,29,18,12,3,29,27,29,28,8,6,10,3,6,24,26,11,11,17,20,7,17,28,30,400.txt
1,0,1,1,13,30,17,1,1,7,22,1,15,17,9,15,12,23,8,11,27,11,14,14,17,0,12,9,14,11,26,20,11,5,21,12,1,8,11,8,13,15,24,10,1,13,402.txt
0,0,0,0,0,27,26,20,0,0,0,11,18,24,20,15,9,25,26,12,15,12,15,27,0,7,0,0,0,0,0,4,0,4,6,0,26,0,18,15,10,8,14,10,28,26,405.txt
0,0,0,0,0,27,0,20,0,0,0,16,18,24,20,29,9,25,8,11,15,12,23,14,18,7,0,0,0,0,0,4,0,4,22,19,8,26,11,20,11,12,14,17,28,17,407.txt
1,17,22,22,16,30,3,9,6,4,3,3,3,3,6,3,4,8,21,24,20,28,21,30,11,12,23,12,27,21,18,27,26,26,26,5,5,5,5,5,13,15,24,21,17,29,411.txt
0,0,0,0,0,27,26,20,0,0,0,11,18,24,20,15,9,25,26,12,15,12,15,27,0,7,0,0,0,6,0,4,8,4,0,11,23,15,21,12,10,8,14,0,0,0,413.txt
0,0,0,0,0,27,26,20,0,0,0,11,18,24,20,15,9,25,26,12,15,12,15,27,0,7,0,0,0,0,0,4,0,4,0,0,26,0,18,15,10,8,14,0,0,0,416.txt
1,8,22,11,5,20,1,7,18,4,17,8,13,30,6,3,5,9,21,24,6,23,9,30,10,12,11,10,16,12,26,18,11,15,3,20,8,14,17,17,29,30,30,17,28,30,417.txt
0,0,0,0,0,27,26,20,0,0,0,11,18,24,20,15,9,25,26,12,15,12,15,27,0,7,0,0,0,6,12,4,8,4,0,11,23,15,21,12,10,8,14,0,0,9,419.txt
0,0,0,0,0,27,30,28,0,0,0,22,25,0,30,30,27,23,28,12,0,30,15,2,0,0,3,29,27,29,26,15,10,21,3,21,8,14,11,17,12,0,16,17,14,30,421.txt
0,0,0,0,0,27,26,28,0,0,0,11,21,0,0,15,0,23,8,21,0,0,22,14,18,0,27,21,30,0,0,21,0,0,0,0,26,0,18,15,10,8,22,0,0,0,423.txt
0,0,0,0,0,27,26,20,0,0,0,11,18,24,20,15,9,25,26,12,15,12,15,27,19,7,6,9,14,8,3,4,6,4,6,3,3,3,3,3,10,8,14,2,16,14,425.txt
0,0,0,0,0,27,20,28,0,0,0,23,21,0,0,21,0,0,26,12,0,0,15,27,0,0,0,0,0,4,0,21,8,0,0,11,23,15,21,12,6,6,19,0,0,0,427.txt
0,0,0,0,0,27,20,28,0,0,0,23,21,0,0,21,0,0,8,11,0,0,22,14,18,0,0,0,0,0,0,21,0,0,0,0,26,0,18,15,6,6,19,0,0,0,430.txt
0,0,0,0,0,27,0,25,0,0,0,0,21,0,0,29,0,23,0,12,0,0,15,22,0,0,25,22,28,0,0,24,0,6,6,0,0,0,0,0,11,0,17,17,28,26,434.txt
0,0,0,0,0,27,26,20,0,0,0,11,18,24,20,15,9,23,12,9,21,23,21,15,10,7,24,30,18,29,18,23,11,18,21,0,26,0,18,15,10,8,10,2,16,17,436.txt
0,0,0,0,0,27,26,20,0,0,0,11,18,24,20,15,9,0,26,12,15,12,10,27,2,7,0,0,0,0,0,4,0,4,5,0,26,0,18,15,10,8,14,4,2,0,439.txt
0,0,0,0,0,27,26,20,0,0,0,11,18,24,20,15,9,25,26,12,15,12,10,18,7,7,27,21,30,0,0,4,0,4,9,0,26,0,18,15,10,8,10,6,6,0,444.txt
0,0,5,0,0,27,26,20,11,10,9,11,10,7,15,15,23,25,26,18,13,11,10,18,7,7,27,21,30,0,0,2,0,27,6,3,3,3,3,3,22,22,10,2,16,29,447.txt
0,0,5,0,0,27,26,20,0,0,0,11,18,24,20,15,9,25,26,12,15,12,10,18,7,7,27,21,30,0,13,4,17,4,9,0,26,0,18,15,10,8,10,6,6,0,449.txt
0,0,0,0,0,27,26,20,0,0,0,11,18,24,20,15,9,25,26,12,15,12,15,27,0,7,0,0,0,0,0,4,0,4,22,0,26,0,18,15,10,8,14,12,28,24,452.txt
0,0,0,0,0,27,26,20,0,0,0,11,18,24,20,15,9,25,26,12,15,12,15,22,0,7,28,19,28,0,0,4,0,4,6,0,26,0,18,15,10,8,10,2,16,29,454.txt
0,0,0,0,0,27,26,20,0,0,0,11,18,24,20,15,9,26,26,12,15,12,2,24,2,7,28,19,28,0,27,28,25,3,15,0,26,0,18,15,30,5,17,14,16,29,456.txt
0,0,0,0,0,27,26,20,0,0,0,11,18,24,20,15,9,25,26,12,15,12,15,27,0,7,0,0,0,0,0,4,0,4,0,0,26,0,18,15,10,8,19,0,0,0,458.txt
0,0,0,0,0,27,0,28,0,0,0,16,24,0,29,29,26,23,27,12,0,30,15,27,0,0,6,9,3,8,26,6,21,18,6,19,8,27,12,25,12,13,14,1,28,24,460.txt
0,0,0,0,0,27,26,20,0,0,0,11,18,24,20,15,9,25,23,7,15,12,21,5,10,7,0,0,0,0,0,4,0,4,0,0,26,0,18,15,10,8,14,0,0,0,463.txt
0,0,0,0,0,27,26,20,0,0,0,11,18,24,20,15,9,25,26,12,15,12,15,27,0,7,0,0,0,0,0,4,0,4,0,0,26,0,18,15,10,8,14,0,0,0,465.txt
0,0,0,0,0,27,26,28,0,0,0,11,21,0,0,15,0,23,26,12,0,0,2,24,19,0,28,19,28,0,0,6,0,21,25,0,26,0,18,15,10,8,17,17,28,28,469.txt
1,5,14,17,13,3,17,6,21,16,17,8,13,30,8,3,29,20,8,11,20,22,20,11,18,3,9,17,19,19,28,26,18,7,22,6,1,24,10,19,4,4,4,20,24,30,472.txt
0,0,0,0,0,27,0,20,0,0,0,0,18,24,20,27,9,0,27,12,0,0,15,18,0,7,27,21,30,0,0,21,0,0,0,0,26,0,18,15,11,13,10,0,0,0,473.txt
0,0,0,0,0,27,26,0,0,0,0,11,21,0,0,15,0,23,26,12,0,0,2,22,2,0,28,19,28,0,0,0,0,0,5,0,0,0,0,0,10,8,9,4,2,0,475.txt
0,0,0,0,0,27,26,20,0,0,0,11,18,24,20,15,9,25,26,12,15,12,15,27,0,7,0,0,0,0,0,4,0,4,6,3,3,3,3,3,10,8,14,12,28,24,477.txt
0,0,0,0,0,27,26,20,0,0,0,11,18,24,20,15,9,25,26,12,15,12,15,18,0,7,28,22,28,0,0,4,0,4,2,3,3,3,3,3,10,8,22,20,28,24,479.txt
0,0,0,0,0,27,26,20,0,0,0,11,18,24,20,15,9,25,26,12,15,12,15,27,0,7,0,0,0,0,0,4,0,4,6,0,26,0,18,15,10,8,14,2,16,24,481.txt
0,0,0,0,0,27,26,20,0,0,0,11,18,24,20,15,9,23,26,12,0,0,15,27,0,7,0,0,0,0,0,6,0,20,2,0,26,0,18,15,10,8,14,12,28,15,485.txt
0,0,0,0,0,27,26,20,0,0,0,11,18,24,20,15,9,25,26,12,15,12,15,27,0,7,0,0,0,0,0,4,0,4,1,0,26,0,18,15,10,8,14,2,16,24,487.txt
0,0,0,0,0,27,26,20,29,8,9,11,2,7,15,15,21,25,26,29,2,2,10,27,5,7,0,0,0,0,14,13,29,5,9,15,21,2,23,13,2,14,14,6,6,0,488.txt
0,0,0,0,0,27,26,20,0,0,0,11,18,24,20,15,9,25,26,12,15,12,15,27,0,7,0,0,0,0,0,4,0,4,0,0,26,0,18,15,10,8,14,0,0,0,491.txt
0,0,0,0,0,27,26,28,0,0,0,11,0,0,0,15,0,0,26,12,0,0,15,27,0,0,0,0,0,0,0,21,0,0,0,0,26,0,18,15,10,8,14,0,0,0,492.txt
0,0,0,0,0,27,26,20,0,0,0,11,18,24,20,15,9,0,26,12,0,0,2,27,19,7,0,0,0,0,0,21,0,0,5,0,26,0,18,15,10,8,14,4,2,0,494.txt
30,21,5,29,28,17,19,12,5,9,9,24,2,7,15,5,22,7,19,17,11,14,11,28,7,29,2,6,9,2,23,2,17,27,30,3,3,3,3,3,20,23,14,15,22,28,496.txt
0,0,0,0,0,27,26,28,0,0,0,11,21,0,0,15,0,23,26,26,0,0,15,18,0,0,28,19,28,0,0,24,0,21,3,0,26,0,18,15,10,8,17,17,28,24,498.txt
0,0,0,0,0,27,26,28,0,0,0,11,21,0,0,15,0,22,26,12,0,0,15,27,0,0,0,0,0,0,0,6,0,6,2,0,26,0,18,15,30,29,14,12,28,15,500.txt
0,0,0,0,0,27,26,20,0,0,0,11,18,24,20,15,9,13,26,26,15,12,15,26,2,7,25,19,28,0,0,3,0,3,30,0,26,0,18,15,5,5,17,2,16,27,502.txt
0,0,0,0,0,27,26,20,0,0,0,11,18,24,20,15,9,25,26,12,15,12,15,27,0,7,6,9,3,8,28,4,21,4,6,3,3,3,3,3,10,8,14,2,16,24,503.txt
0,0,0,0,0,27,26,20,0,0,0,11,18,24,20,15,9,26,8,11,15,12,21,14,11,7,6,9,14,8,28,28,21,3,6,0,26,0,18,15,30,5,14,2,16,26,505.txt
0,0,0,0,0,27,26,28,0,0,0,11,24,0,29,15,26,23,26,12,0,30,15,18,0,0,27,21,30,0,0,15,0,20,6,18,8,22,7,29,10,8,22,20,28,24,507.txt
0,0,0,0,0,27,26,20,0,0,0,11,18,24,20,15,9,25,8,14,15,12,21,12,10,7,27,21,30,0,0,4,0,4,26,0,26,0,18,15,10,8,15,2,16,29,510.txt
0,0,0,0,0,27,26,28,0,0,0,11,21,0,0,15,0,22,8,11,0,0,9,14,10,0,27,21,30,0,0,6,0,20,2,0,26,0,18,15,10,8,22,12,28,15,513.txt
0,0,0,0,0,27,26,20,0,0,0,11,18,24,20,0,9,25,26,0,15,12,15,27,0,19,0,0,0,0,0,4,0,4,0,0,26,0,18,15,10,8,19,0,0,0,516.txt
0,0,0,0,0,27,26,20,0,0,0,11,18,24,20,15,9,25,26,12,15,12,2,27,12,7,0,0,0,0,0,4,0,4,27,0,26,0,18,15,10,8,14,2,16,29,518.txt
1,8,22,1,16,9,1,7,18,15,22,1,15,17,6,3,16,8,10,27,23,1,7,5,10,12,24,28,21,30,19,30,26,26,13,26,30,7,11,7,13,15,24,12,28,18,521.txt
1,8,21,11,24,4,1,7,18,15,17,7,28,21,6,4,13,29,8,19,23,28,20,14,30,12,3,28,27,30,8,27,26,26,1,19,8,27,11,23,14,16,7,17,28,20,524.txt
0,0,0,0,0,27,26,20,0,0,0,11,18,24,20,15,9,25,9,12,14,3,15,28,0,7,6,7,3,8,3,4,6,4,30,3,3,3,3,3,10,8,14,12,16,24,527.txt
0,0,0,0,0,27,26,20,0,0,0,11,18,24,20,15,9,25,26,12,15,12,15,27,0,7,0,0,0,0,0,4,0,4,0,0,26,0,18,15,10,8,19,0,0,10,529.txt
0,0,0,0,0,27,26,20,0,0,0,11,18,24,20,15,9,25,26,12,15,12,15,27,0,7,0,0,0,0,0,4,0,4,6,3,3,3,3,3,10,8,14,2,16,29,530.txt
0,0,0,0,0,27,26,20,0,0,0,11,18,24,20,15,9,25,26,12,15,12,15,27,0,7,0,0,0,0,0,4,0,4,27,30,29,28,25,27,10,8,14,2,16,29,532.txt
0,0,0,0,0,27,26,20,0,0,0,11,18,24,20,15,9,25,26,12,15,12,2,27,0,7,0,0,0,6,0,4,8,4,25,11,23,15,21,6,10,8,14,2,16,14,534.txt
0,0,0,0,0,27,26,20,0,0,0,11,18,24,20,15,9,25,26,12,15,12,15,27,0,7,0,0,0,0,0,4,0,4,4,18,1,26,27,25,10,8,14,2,16,24,536.txt
0,0,0,0,0,27,26,20,0,0,0,11,18,24,20,15,9,25,26,12,15,12,15,27,0,7,0,0,0,0,0,4,0,4,22,0,26,0,18,15,10,8,14,12,28,30,538.txt
0,0,0,0,0,27,26,20,0,0,0,11,18,24,20,15,9,25,26,12,15,12,15,27,0,7,0,0,0,0,0,4,0,4,0,0,26,0,18,15,10,8,14,0,0,0,541.txt
0,0,0,0,0,27,26,20,0,0,0,11,18,24,20,15,9,25,26,12,15,12,15,27,0,7,0,0,0,0,0,4,0,4,0,0,26,0,18,15,10,8,14,0,0,0,543.txt
0,0,0,0,0,27,26,20,0,0,0,11,18,24,20,15,9,26,26,12,15,12,2,27,2,7,0,0,0,0,0,28,0,3,5,0,26,0,18,15,30,5,14,4,2,0,545.txt
0,0,0,0,0,27,26,20,0,0,0,11,18,24,20,15,9,25,23,28,18,24,22,16,10,7,5,13,6,0,0,4,0,4,13,0,26,0,18,15,10,8,14,27,28,22,549.txt
0,0,0,0,0,27,26,20,0,0,0,11,18,24,20,15,9,25,26,12,15,12,15,22,0,7,27,21,30,0,0,4,0,4,0,0,26,0,18,15,10,8,17,0,0,0,551.txt
0,0,0,0,0,27,26,20,0,0,0,11,18,24,20,15,9,25,26,12,15,12,15,27,0,7,0,0,0,0,0,4,0,4,6,0,26,0,18,15,10,8,5,17,28,24,554.txt
0,0,0,0,0,27,26,20,0,0,0,11,18,24,20,15,9,25,26,0,15,12,15,28,0,7,0,0,0,0,0,4,0,4,6,0,26,0,18,15,10,8,14,2,16,29,557.txt
0,0,0,0,0,27,26,20,0,0,0,11,18,24,20,15,9,25,26,12,15,12,15,27,0,7,0,0,0,0,0,4,0,4,0,0,26,0,18,15,10,8,14,0,0,0,558.txt
0,0,0,0,0,27,26,28,0,0,0,11,21,0,0,15,0,23,26,0,0,0,15,22,0,0,27,21,30,0,0,15,0,20,6,0,26,0,18,15,10,8,22,1,28,29,561.txt
1,5,14,20,13,3,22,9,19,16,3,3,12,3,8,3,17,20,4,4,21,22,20,4,21,3,23,12,22,21,11,26,23,7,14,5,5,5,5,5,4,4,4,17,24,26,564.txt
30,21,5,29,28,17,24,12,11,2,9,24,16,7,15,19,2,27,2,18,13,2,10,18,7,17,2,23,8,25,29,10,2,24,26,15,21,2,22,13,22,22,18,14,16,29,566.txt
0,0,0,0,0,27,26,20,0,0,0,11,18,24,20,15,9,0,26,12,15,12,2,22,20,7,27,21,30,0,0,4,0,4,5,0,26,0,18,15,10,8,17,4,2,0,568.txt
0,0,0,0,0,27,26,20,0,0,0,11,18,24,20,15,9,25,26,12,15,12,15,27,0,7,0,0,0,0,0,4,0,4,0,0,26,0,18,15,10,8,14,0,0,0,572.txt
0,0,0,0,0,27,26,20,0,0,0,11,18,24,20,0,9,25,26,26,15,12,15,27,0,19,0,0,0,6,0,4,8,4,0,11,23,15,21,6,10,8,14,0,0,0,574.txt
0,0,0,0,0,27,0,28,0,0,0,12,25,0,30,30,27,23,28,12,0,30,15,2,0,0,25,22,28,0,0,15,0,21,30,21,8,27,28,23,12,13,16,17,14,24,576.txt
0,0,0,0,0,27,26,20,0,0,0,11,18,24,20,15,9,23,8,3,0,0,22,3,30,7,0,0,0,6,0,6,8,6,1,11,23,15,21,12,10,8,14,12,16,30,578.txt
1,0,14,1,8,30,17,6,21,6,22,1,15,29,3,15,4,25,8,21,15,12,21,14,11,7,6,9,3,8,6,4,6,4,6,3,3,3,3,3,10,8,14,2,16,24,580.txt
0,0,0,0,0,27,26,28,0,0,0,11,23,0,28,15,27,22,26,12,0,30,15,22,0,0,3,10,14,12,26,6,6,20,3,21,8,16,17,11,10,8,9,17,28,13,582.txt
0,0,0,0,0,27,26,28,0,0,0,11,21,0,0,15,0,0,22,27,0,0,22,17,29,0,27,21,30,4,0,21,16,16,0,14,23,29,6,12,10,8,10,0,0,10,584.txt
1,17,20,11,24,4,17,6,21,4,17,5,13,5,6,3,3,29,15,26,3,3,2,24,20,12,23,12,27,21,10,27,26,26,14,5,5,5,5,5,14,16,7,17,28,27,586.txt
0,0,0,0,0,27,26,20,0,0,0,11,18,24,20,15,9,25,26,12,15,12,15,27,0,7,0,0,0,0,0,4,0,4,0,0,26,0,18,15,10,8,14,0,0,0,588.txt
0,0,0,0,0,27,26,28,0,0,0,11,21,0,0,15,0,0,26,12,0,0,15,18,0,0,27,21,30,0,0,21,0,0,0,0,26,0,18,15,10,8,10,0,0,0,591.txt
0,0,0,0,0,27,26,20,0,0,0,11,18,24,20,15,9,25,26,12,15,12,15,27,0,7,0,0,0,0,0,4,0,4,0,0,26,0,18,15,10,8,14,0,0,0,594.txt
0,0,0,0,0,27,26,20,0,0,0,11,18,24,20,15,9,23,8,21,7,7,23,14,18,7,9,29,3,29,28,24,13,20,7,0,26,0,18,15,10,8,14,12,28,24,596.txt
0,0,0,0,0,27,0,29,0,0,0,18,21,0,0,28,0,24,12,9,0,0,9,16,9,0,26,20,29,7,0,22,16,16,17,14,4,29,6,4,12,13,12,18,12,8,598.txt
0,0,0,0,0,27,26,20,0,0,0,11,18,24,20,15,9,25,26,12,15,12,15,27,0,7,0,0,0,0,0,4,0,4,0,0,26,0,18,15,10,8,14,0,0,0,600.txt
0,0,0,0,0,27,26,20,0,0,0,11,18,24,20,15,9,23,8,21,0,0,21,12,29,7,27,21,30,0,0,23,0,20,22,0,26,0,18,15,10,8,10,17,28,24,603.txt
0,0,0,0,0,27,26,20,0,0,0,11,18,24,20,15,9,25,26,12,15,12,15,27,0,7,0,0,0,0,0,4,0,4,6,3,3,3,3,3,10,8,5,13,28,29,604.txt
0,0,0,0,0,27,26,20,0,0,0,11,18,24,20,0,9,26,26,0,15,12,15,27,0,19,0,0,0,0,0,28,0,28,0,0,0,0,0,0,30,29,14,0,0,0,606.txt
0,0,0,0,0,27,26,20,0,0,0,11,18,24,20,15,9,25,26,12,15,12,15,27,0,7,0,0,0,0,0,4,0,4,21,0,26,0,18,15,10,8,14,2,16,30,607.txt
0,0,0,0,0,27,26,20,0,0,0,11,18,24,20,15,9,25,26,12,15,12,15,27,0,7,0,0,0,0,0,4,0,4,0,0,26,0,18,15,10,8,14,0,0,0,613.txt
0,0,0,0,0,27,26,28,0,0,0,11,21,0,0,15,0,0,26,12,0,0,15,27,0,0,0,0,0,0,0,21,0,0,0,0,26,0,18,15,10,8,5,0,0,0,615.txt
0,0,0,0,0,27,26,20,0,0,0,11,18,24,20,15,9,0,26,12,15,12,15,27,0,7,0,0,0,6,0,4,8,4,0,11,23,15,21,12,10,8,14,0,0,8,618.txt
0,0,0,0,0,27,26,20,0,0,0,11,18,24,20,15,9,25,26,12,15,12,15,27,0,7,0,0,0,0,0,4,0,4,0,0,26,0,18,15,10,8,19,0,0,0,621.txt
1,18,17,1,24,4,17,6,8,4,22,29,15,1,6,3,13,4,3,20,19,4,20,14,11,12,9,27,4,29,11,18,13,15,23,1,8,1,7,1,15,17,7,17,28,30,623.txt
1,8,22,11,24,4,1,7,18,15,19,7,13,21,6,3,11,9,8,23,24,28,20,13,10,12,18,30,19,29,8,18,26,15,21,21,8,27,11,22,29,30,30,17,28,22,624.txt
0,0,0,0,0,27,26,20,0,0,0,11,18,24,20,15,9,25,8,10,1,7,23,11,29,7,18,27,5,29,28,4,20,4,22,0,26,0,18,15,10,8,19,12,19,24,627.txt
0,0,0,0,0,27,26,20,0,0,0,11,18,24,20,15,9,25,26,26,15,12,11,27,12,7,0,0,0,0,0,4,0,4,0,0,26,0,18,15,10,8,14,0,0,0,628.txt
0,0,0,0,0,27,26,20,0,0,0,11,18,24,20,15,9,25,26,12,15,12,15,27,0,7,0,0,0,0,0,4,0,4,0,0,26,0,18,15,10,8,19,0,0,0,629.txt
28,4,22,16,18,4,1,7,18,15,28,8,30,10,6,10,11,9,22,13,4,23,7,16,10,12,22,15,17,9,8,18,12,15,29,22,17,17,13,24,29,30,30,27,17,16,631.txt
0,0,3,0,0,27,0,26,0,0,0,20,22,0,22,28,18,22,27,12,0,0,16,19,22,8,30,21,30,7,5,15,16,19,30,14,10,29,6,6,12,13,2,27,28,27,633.txt
0,0,0,0,0,27,26,28,0,0,0,11,23,0,28,15,26,23,26,12,0,30,15,27,0,0,0,0,0,0,0,6,0,20,22,23,24,16,11,11,10,8,14,17,28,30,635.txt
0,0,0,0,0,27,26,20,0,0,0,11,18,24,20,15,9,25,26,12,15,12,15,27,0,7,0,0,0,0,0,4,0,4,23,1,1,1,7,1,10,8,14,12,28,24,637.txt
0,0,0,0,0,27,26,28,11,2,9,11,8,7,15,15,2,0,26,18,11,14,10,18,7,0,27,21,30,0,13,10,17,24,9,16,12,2,22,10,2,14,18,19,6,0,642.txt
0,0,0,0,0,27,0,28,0,0,0,0,21,0,0,6,0,0,27,12,0,0,15,2,0,0,27,21,30,0,0,21,0,0,0,0,26,0,18,15,0,25,9,0,0,0,645.txt
26,5,14,16,16,9,10,5,7,21,21,7,28,21,13,17,11,14,12,9,18,22,17,5,10,28,24,3,18,3,18,29,15,30,21,17,30,17,30,30,8,28,8,24,10,16,647.txt
0,0,0,0,0,27,26,20,0,0,0,11,18,24,20,15,9,25,26,12,15,12,15,27,0,7,0,0,0,0,0,4,0,4,2,0,26,0,18,15,10,8,14,2,16,24,650.txt
0,0,0,0,0,27,26,20,0,0,0,11,18,24,20,15,9,25,26,12,15,12,15,27,0,7,0,0,0,0,0,4,0,4,0,0,26,0,18,15,10,8,14,0,0,0,652.txt
0,0,0,0,0,27,26,28,0,0,0,11,21,0,0,15,0,0,8,11,0,0,22,3,18,0,28,22,28,0,13,21,29,0,5,0,26,0,18,15,10,8,9,4,2,0,654.txt
30,21,0,29,2,17,23,12,12,2,11,25,8,28,19,19,2,27,2,18,29,2,11,24,5,17,2,25,8,22,23,13,2,24,26,29,25,28,25,26,22,22,16,10,28,26,657.txt
0,0,0,0,0,27,26,20,0,0,0,11,18,24,20,15,9,25,8,11,24,24,20,11,10,7,19,27,23,29,17,4,19,4,22,11,23,15,21,12,10,8,19,2,16,22,658.txt
0,0,0,0,0,27,26,20,0,0,0,11,18,24,20,15,9,0,26,12,0,0,15,27,0,7,0,0,0,7,12,21,8,17,0,11,23,15,21,4,10,8,14,0,0,9,662.txt
0,0,0,0,0,27,26,20,0,0,0,11,18,24,20,15,9,25,26,12,15,12,15,27,0,7,0,0,0,0,0,4,0,4,0,0,26,0,18,15,10,8,14,0,0,0,663.txt
0,0,0,0,0,27,26,20,0,0,0,11,18,24,20,15,9,25,26,12,15,12,15,27,0,7,0,0,0,0,0,4,0,4,22,0,26,0,18,15,10,8,14,12,28,24,665.txt
0,0,0,0,0,27,26,20,0,0,0,11,18,24,20,15,9,0,26,12,0,0,15,27,0,7,0,0,0,0,0,21,0,0,0,0,26,0,18,15,10,8,6,0,0,0,669.txt
0,0,0,0,0,27,26,20,0,0,0,11,18,24,20,15,9,25,26,12,15,12,15,27,0,7,0,0,0,0,0,4,0,4,4,18,13,24,30,30,10,8,14,2,16,24,671.txt
0,0,0,0,0,27,26,20,0,0,0,11,18,24,20,15,9,25,26,12,15,12,10,27,0,7,0,0,0,0,0,4,0,4,6,3,3,3,3,3,10,8,14,10,16,29,673.txt
0,0,0,0,0,27,26,28,0,0,0,11,24,0,29,15,27,23,26,12,0,30,15,27,0,0,0,0,0,0,0,15,0,20,6,3,3,3,3,3,10,8,14,17,28,26,675.txt
1,5,14,15,16,30,1,7,18,11,17,7,4,21,7,4,17,14,1,1,20,20,21,1,11,27,23,12,27,21,6,29,6,30,14,5,5,5,5,28,4,4,4,21,17,29,678.txt
0,0,0,0,0,28,26,20,0,0,0,11,18,24,20,0,9,25,26,0,15,12,15,27,0,19,0,0,0,0,0,4,0,4,2,0,26,0,18,15,10,8,5,12,28,15,680.txt
0,0,0,0,0,27,26,20,0,0,0,11,18,24,20,15,9,25,26,12,15,12,15,27,0,7,0,0,0,0,0,4,0,4,0,0,26,0,18,15,10,8,19,0,0,0,683.txt
0,0,0,0,0,27,26,28,0,0,0,11,21,0,0,15,0,0,8,5,0,0,3,14,10,0,0,0,0,0,0,21,0,0,0,0,26,0,18,15,10,8,19,0,0,0,685.txt
0,0,0,0,0,27,26,20,0,0,0,11,18,24,20,15,9,25,26,12,15,12,15,27,0,7,0,0,0,0,0,4,0,4,0,0,26,0,18,15,10,8,14,0,0,0,687.txt
0,0,0,0,0,27,26,28,0,0,0,11,21,0,0,15,0,0,26,12,0,0,15,27,0,0,0,0,0,0,0,0,0,0,0,0,26,0,18,15,30,29,14,0,0,0,689.txt
0,0,0,0,0,27,26,20,0,0,0,11,18,24,20,15,9,25,26,12,15,12,15,27,0,7,0,0,0,0,0,4,0,4,6,0,26,0,18,15,10,8,14,2,16,26,691.txt
1,5,14,1,13,3,17,6,21,16,22,1,15,17,8,26,4,20,8,11,21,22,20,12,21,3,19,17,18,19,11,26,23,7,22,19,13,27,11,19,4,4,4,3,24,17,695.txt
0,0,0,0,0,27,26,20,0,0,0,11,18,24,20,15,9,26,26,12,15,12,2,27,2,7,6,7,1,8,3,28,6,3,2,3,3,3,3,3,30,5,14,2,16,15,696.txt
1,17,17,1,5,4,17,6,21,12,22,1,15,17,6,1,29,4,26,12,0,30,15,22,0,12,6,9,14,8,26,27,6,26,6,3,3,3,3,3,17,20,7,17,28,29,700.txt
0,0,0,0,0,27,26,20,0,0,0,11,18,24,20,15,9,26,26,12,15,12,15,27,0,7,0,0,0,0,0,28,0,28,6,0,26,0,18,15,30,29,14,2,16,24,703.txt
1,5,14,16,13,3,10,6,21,16,17,30,13,20,8,3,29,20,8,11,20,23,7,14,18,3,19,17,19,19,28,26,14,7,19,6,14,18,17,19,4,4,4,30,24,22,705.txt
0,0,0,0,0,27,26,20,0,0,0,11,18,24,20,15,9,25,26,12,15,12,15,27,0,7,0,0,0,0,0,4,0,4,6,0,26,0,18,15,10,8,14,17,16,24,706.txt
30,22,5,29,2,15,2,19,13,2,2,25,8,27,19,19,2,27,2,18,10,13,2,24,5,2,16,6,9,2,21,13,2,5,12,2,2,2,24,2,22,22,9,17,28,30,709.txt
30,21,5,29,28,17,19,12,11,2,14,24,10,13,18,5,2,7,17,18,11,14,10,18,7,29,16,25,8,25,13,20,25,24,8,15,21,2,23,13,22,22,10,5,5,0,711.txt
0,0,0,0,0,27,26,20,0,0,0,11,18,24,20,15,9,25,26,12,15,12,10,18,7,7,27,21,30,0,0,4,0,4,9,0,26,0,18,15,2,14,10,6,6,0,712.txt
0,0,0,0,0,27,26,20,0,0,0,11,18,24,20,15,9,25,15,12,3,15,10,18,7,7,27,21,30,6,12,4,5,4,30,9,23,9,14,6,10,8,10,23,16,27,713.txt
0,0,0,0,0,27,26,20,0,0,0,11,18,24,20,15,9,0,4,4,0,0,14,4,17,7,0,0,0,4,12,21,8,17,0,11,23,15,21,4,10,8,13,0,0,9,716.txt
0,0,5,0,0,27,26,20,0,0,0,11,18,24,20,15,9,25,26,26,15,12,12,22,5,7,27,21,30,0,0,4,0,4,6,0,26,0,18,15,10,8,9,17,28,27,722.txt
0,0,0,0,0,27,26,20,0,0,0,11,18,24,20,15,9,25,26,12,15,12,15,27,0,7,0,0,0,0,0,4,0,4,0,0,26,0,18,15,10,8,14,0,0,0,724.txt
0,0,0,0,0,27,26,20,0,0,0,11,18,24,20,15,9,0,26,12,15,12,15,18,0,7,27,21,30,6,12,4,4,4,0,8,23,6,6,4,10,8,18,0,0,9,727.txt
0,0,0,0,0,27,26,20,0,0,0,11,18,24,20,15,9,25,26,12,15,12,15,22,0,7,25,22,28,0,0,4,0,4,6,0,26,0,18,15,10,8,16,10,28,29,728.txt
0,0,0,0,0,27,26,20,0,0,0,11,18,24,20,15,9,25,26,12,15,12,15,27,0,7,0,0,0,0,0,4,0,4,2,1,1,1,7,1,10,8,14,2,16,15,732.txt
0,0,0,0,0,27,26,20,0,0,0,11,18,24,20,15,9,25,26,12,15,12,15,27,0,7,0,0,0,0,0,4,0,4,6,3,3,3,3,3,10,8,14,2,16,24,734.txt
1,17,17,1,8,30,17,6,21,6,22,1,15,29,13,26,15,4,4,4,15,12,21,4,11,26,6,9,27,8,6,30,9,26,15,30,29,28,25,27,17,20,7,2,16,27,735.txt
0,0,0,0,0,27,0,28,0,0,0,0,21,0,0,29,0,23,28,12,0,0,2,22,12,0,28,19,28,0,23,24,2,20,6,0,26,0,18,15,22,22,17,17,16,29,737.txt
0,0,0,0,0,27,26,28,0,0,0,11,21,0,0,15,0,22,26,12,0,0,15,27,0,0,0,0,0,0,0,6,0,6,6,0,26,0,18,15,10,8,5,17,28,15,738.txt
0,0,0,0,0,27,0,28,0,0,0,0,21,0,0,6,0,0,8,11,22,16,22,14,11,0,4,4,6,0,0,21,0,0,0,0,26,0,18,15,12,25,9,0,0,0,741.txt
30,21,5,30,2,15,25,19,13,2,29,25,16,28,18,5,2,7,2,18,10,13,11,24,5,4,2,25,8,15,23,13,2,24,8,2,2,2,24,2,22,22,16,5,5,12,743.txt
0,0,0,0,0,27,26,28,0,0,0,11,21,0,0,15,0,22,1,1,0,0,9,1,18,0,28,22,28,0,0,23,0,20,2,0,26,0,18,15,10,8,22,17,28,15,747.txt
0,0,0,0,0,27,26,20,0,0,0,11,18,24,20,15,9,25,9,12,3,15,15,28,0,7,0,0,0,0,0,4,0,4,6,0,26,0,18,15,10,8,14,23,16,27,748.txt
0,0,0,0,0,27,26,20,0,0,0,11,18,24,20,15,9,25,26,12,15,12,15,27,0,7,0,0,0,0,0,4,0,4,22,0,26,0,18,15,10,8,14,12,28,24,751.txt
1,15,22,1,16,9,1,7,18,20,22,29,15,17,10,3,11,8,12,9,17,23,6,15,10,28,24,26,21,28,8,18,26,15,18,22,20,21,11,24,13,15,24,14,16,21,755.txt
0,0,0,0,0,27,26,20,0,0,0,11,18,24,20,15,9,25,26,12,15,12,15,22,0,7,25,19,28,0,0,4,0,4,0,0,26,0,18,15,10,8,16,0,0,0,756.txt
1,0,17,1,1,1,17,6,8,1,22,1,15,17,3,15,29,25,8,21,15,12,23,29,18,7,6,9,3,8,28,4,13,4,2,3,3,3,3,3,9,9,7,12,28,24,760.txt
0,0,0,0,0,27,26,20,0,0,0,11,18,24,20,15,9,25,26,12,15,12,15,27,7,7,0,0,0,6,0,4,5,4,0,9,10,9,14,12,10,8,14,0,0,9,765.txt
0,0,0,0,0,27,27,27,0,0,0,20,22,0,22,6,18,0,28,12,0,0,11,2,5,8,25,22,28,7,5,0,16,16,8,14,10,29,6,6,12,13,9,5,5,8,766.txt
0,0,0,0,0,27,26,20,0,0,0,11,18,24,20,15,9,23,26,12,0,0,15,27,0,7,0,0,0,0,0,0,0,0,0,0,26,0,18,15,10,8,14,0,0,0,768.txt
0,0,5,0,0,27,26,20,0,0,0,11,18,24,20,15,9,25,26,12,15,12,2,22,2,7,25,19,28,0,0,4,0,4,5,0,26,0,18,15,10,8,17,4,2,0,771.txt
0,0,0,0,0,27,26,20,0,0,0,11,18,24,20,15,9,25,26,12,15,12,15,27,0,7,0,0,0,0,0,4,0,4,30,0,26,0,18,15,10,8,5,17,28,15,772.txt
0,0,0,0,0,27,26,20,0,0,0,11,18,24,20,15,9,25,8,21,1,7,8,3,18,7,0,0,0,0,0,4,0,4,0,0,26,0,18,15,10,8,14,0,0,0,773.txt
0,0,0,0,0,27,26,28,0,0,0,11,21,0,0,15,0,23,26,12,0,0,15,22,0,0,28,22,28,0,0,23,0,6,2,0,26,0,18,15,10,8,9,20,28,15,775.txt
0,0,0,0,0,27,26,20,0,0,0,11,18,24,20,15,9,25,26,12,15,12,15,27,0,7,0,0,0,6,0,4,8,4,0,11,23,15,21,12,10,8,14,0,0,0,777.txt
0,0,0,0,0,27,26,20,0,0,0,11,18,24,20,15,9,25,8,11,15,12,21,12,18,7,6,18,18,8,28,4,21,4,30,3,3,3,3,3,10,8,10,12,28,29,779.txt
0,0,0,0,0,27,26,20,0,0,0,11,18,24,20,15,9,25,26,12,15,12,15,27,0,7,0,0,0,0,0,4,0,4,22,0,26,0,18,15,10,8,19,2,16,2,781.txt
0,0,0,0,0,27,26,20,0,0,0,11,18,24,20,15,9,23,26,12,0,0,15,27,0,7,0,0,0,0,0,6,0,20,22,0,26,0,18,15,10,8,14,12,28,24,785.txt
0,0,0,0,0,27,26,20,0,0,0,11,18,24,20,15,9,25,26,12,15,12,15,27,0,7,0,0,0,0,0,4,0,4,0,0,26,0,18,15,10,8,19,0,0,0,787.txt
1,17,17,1,1,1,17,6,21,1,22,1,15,17,6,1,29,4,26,12,15,12,15,22,0,7,6,9,18,8,28,8,21,10,6,3,3,3,3,3,17,20,7,17,28,26,790.txt
0,0,0,0,0,27,26,20,0,0,0,11,18,24,20,15,9,23,26,12,0,30,15,22,0,7,27,21,30,0,0,23,0,20,6,21,8,27,17,19,10,8,16,17,28,29,792.txt
0,0,0,0,0,27,26,20,0,0,0,11,18,24,20,15,9,25,26,12,15,12,15,27,12,7,0,0,0,0,0,4,0,4,6,0,26,0,18,15,10,8,14,1,16,29,796.txt
0,0,0,0,0,27,26,20,0,0,0,11,18,24,20,15,9,25,26,12,15,12,15,27,0,7,0,0,0,0,0,4,0,4,6,0,26,0,18,15,10,8,14,10,28,24,800.txt
0,0,0,0,0,27,26,28,0,0,0,11,24,0,29,15,26,23,8,21,0,30,21,12,21,0,9,30,3,29,11,6,13,18,22,6,18,16,12,25,10,8,14,12,28,24,802.txt
1,5,14,1,13,3,17,6,21,16,22,1,15,17,8,1,29,6,21,8,3,15,23,30,14,13,6,9,17,8,28,16,21,12,6,3,3,3,3,3,8,10,8,2,16,14,806.txt
0,0,0,0,0,27,0,28,0,0,0,0,21,0,0,6,0,0,28,12,0,0,12,27,0,0,0,0,0,0,0,21,0,0,0,0,26,0,18,15,0,12,14,0,0,0,807.txt
0,0,0,0,0,27,26,20,0,0,0,11,18,24,20,15,9,23,26,12,0,0,15,22,0,7,27,21,30,0,0,21,0,0,0,0,26,0,18,15,10,8,9,0,0,0,810.txt
0,0,0,0,0,27,0,28,0,0,0,0,21,0,0,0,0,0,0,0,0,0,15,22,0,0,27,21,30,0,0,21,0,0,0,0,26,0,18,15,12,25,17,0,0,0,813.txt
1,5,14,16,13,3,12,6,21,16,7,4,6,4,8,8,29,10,21,24,30,21,6,30,10,24,21,14,18,26,28,18,23,15,29,22,13,24,17,30,24,21,30,30,24,21,816.txt
0,0,0,0,0,27,26,28,0,0,0,11,21,0,0,15,0,23,8,10,12,23,23,12,10,0,0,0,0,4,0,6,8,18,3,11,10,15,21,12,10,8,14,12,28,22,817.txt
0,0,0,0,0,27,26,20,0,0,0,11,18,24,20,15,9,25,26,12,15,12,10,18,7,7,27,21,30,0,0,4,0,4,9,0,26,0,18,15,10,8,10,6,6,0,818.txt
0,0,0,0,0,27,0,23,0,0,0,0,21,0,0,6,0,0,27,12,0,0,15,18,7,0,27,21,30,0,0,21,0,17,0,0,26,0,18,15,0,25,10,0,0,8,821.txt
0,0,0,0,0,27,26,0,0,0,0,11,21,0,0,15,0,23,26,12,0,0,2,26,12,0,28,19,28,0,0,24,0,6,6,3,3,3,3,3,10,8,9,12,28,26,824.txt
0,0,0,0,0,27,26,20,0,0,0,11,18,24,20,15,9,25,26,12,15,12,15,27,0,7,0,0,0,0,0,4,0,4,0,0,26,0,18,15,10,8,14,0,0,0,827.txt
1,17,24,1,16,30,17,6,21,26,22,1,15,17,6,1,29,9,8,5,15,12,8,13,24,12,23,12,5,21,8,18,26,15,23,22,13,27,9,19,16,30,30,10,28,16,831.txt
0,0,0,0,0,27,26,20,0,0,0,11,18,24,20,15,9,25,8,21,15,12,23,14,18,7,0,0,0,0,0,4,0,4,22,0,26,0,18,15,10,8,14,2,16,24,832.txt
0,0,0,0,0,27,26,20,0,0,0,11,18,24,20,15,9,25,26,12,15,12,15,27,0,7,0,0,0,0,0,4,0,4,0,0,26,0,18,15,10,8,14,0,0,0,834.txt
0,0,0,0,0,27,26,20,0,0,0,11,18,24,20,15,9,25,26,12,15,12,15,27,0,7,0,0,0,0,0,4,0,4,27,0,26,0,18,15,10,8,14,2,16,24,836.txt
0,0,0,0,0,27,26,20,0,0,0,11,18,24,20,15,9,0,26,12,0,0,15,22,0,7,27,21,30,0,0,21,0,0,0,0,26,0,18,15,10,8,16,0,0,0,839.txt
1,19,17,1,13,9,10,6,21,7,22,1,15,17,9,25,4,9,8,11,0,30,21,11,30,12,18,30,25,29,28,18,11,15,21,24,1,27,11,19,29,30,30,12,28,30,842.txt
0,0,0,0,0,27,0,28,0,0,0,0,21,0,0,29,0,22,27,12,0,0,15,27,0,0,0,0,0,0,0,6,0,20,1,0,26,0,18,15,12,12,19,17,28,2,847.txt
30,21,0,13,26,17,19,11,29,8,14,24,2,13,17,2,21,2,25,2,11,14,10,27,7,17,20,2,2,2,15,20,29,2,5,15,21,12,16,13,22,2,19,4,2,0,851.txt
0,0,0,0,0,27,26,20,29,8,9,11,2,7,15,15,21,25,26,2,11,14,12,28,7,7,0,0,0,0,0,2,0,27,26,29,25,28,25,26,22,22,14,2,16,29,852.txt
0,0,17,1,13,9,17,6,21,7,22,29,15,17,9,15,29,25,8,11,21,24,22,10,18,7,18,29,25,29,28,4,19,4,22,20,17,26,11,24,10,8,10,2,16,30,855.txt
0,0,0,0,0,27,26,20,0,0,0,11,18,24,20,15,9,26,26,0,15,12,15,27,0,7,0,0,0,0,0,28,0,3,0,0,0,0,0,0,30,5,14,0,0,0,857.txt
0,0,0,0,0,27,26,20,0,29,0,11,18,25,25,15,20,13,3,5,1,4,4,3,6,7,3,27,4,29,6,3,9,28,1,1,7,1,30,1,5,29,6,16,20,25,859.txt
0,0,0,0,0,27,0,28,0,0,0,16,24,0,29,30,27,23,28,12,0,30,15,22,0,0,27,21,30,0,0,6,0,20,6,3,3,3,3,3,12,25,17,20,28,26,861.txt
0,0,5,0,0,27,26,20,0,0,0,11,18,24,20,15,9,25,26,12,15,12,10,18,7,7,27,21,30,0,0,4,0,4,9,0,26,0,18,15,10,8,10,6,6,0,864.txt
0,0,0,0,0,27,26,20,0,0,0,11,18,24,20,15,9,25,26,12,15,12,15,22,5,7,25,19,28,0,0,4,0,4,6,3,3,3,3,3,10,8,11,12,11,26,866.txt
0,0,0,0,0,27,26,20,0,0,0,11,18,24,20,15,9,22,26,12,15,12,15,27,0,7,0,0,0,0,0,4,0,4,0,0,26,0,18,15,10,8,14,0,0,0,868.txt
0,0,0,0,0,27,26,20,0,0,0,11,18,24,20,15,9,25,26,12,15,12,15,27,0,7,0,0,0,0,0,4,0,4,0,0,26,0,18,15,10,8,14,0,0,0,870.txt
0,0,0,0,0,27,26,20,0,0,0,11,18,24,20,15,9,25,26,12,15,12,15,22,0,7,28,19,28,0,0,4,0,4,2,3,3,3,3,3,10,8,17,17,28,15,872.txt
30,3,5,29,2,15,2,15,2,2,2,2,16,27,19,19,2,27,2,18,29,2,2,2,20,17,2,25,8,22,23,13,2,5,3,2,2,2,24,2,19,22,17,17,14,30,874.txt
0,0,0,0,0,27,26,20,0,0,0,11,18,24,20,15,9,25,26,12,15,12,15,27,0,7,0,0,0,0,0,4,0,4,0,0,26,0,18,15,10,8,14,0,0,0,879.txt
0,0,0,0,0,27,0,23,0,0,0,0,21,0,0,27,0,0,27,12,0,0,15,27,0,0,0,0,0,0,0,21,0,0,0,0,26,0,18,15,12,12,19,0,0,0,882.txt
30,21,5,29,28,17,19,12,5,9,13,24,8,13,16,14,22,16,19,18,11,14,10,18,7,15,16,6,9,2,13,13,17,24,22,16,21,2,23,10,22,22,10,17,28,22,884.txt
0,0,0,0,0,27,26,20,0,0,0,11,18,24,20,15,9,25,26,12,15,12,2,27,19,7,0,0,0,0,0,4,0,4,7,0,26,0,18,15,10,8,14,12,28,24,885.txt
0,0,0,0,0,27,26,20,0,0,0,11,18,24,20,15,9,25,26,12,15,12,15,27,0,7,0,0,0,0,0,4,0,4,0,0,26,0,18,15,10,8,14,0,0,0,886.txt
0,0,0,0,0,27,26,20,0,0,0,11,18,24,20,15,9,25,8,11,15,12,21,11,11,7,0,0,0,0,0,4,0,4,6,0,26,0,18,15,10,8,14,2,16,29,889.txt
0,0,0,0,0,27,26,20,0,0,0,11,18,24,20,15,9,0,8,11,0,0,22,11,11,7,27,21,30,0,0,21,0,16,5,0,26,0,18,15,10,8,17,4,2,10,891.txt
0,0,0,0,0,27,26,20,0,0,0,11,18,24,20,15,9,25,26,12,15,12,15,27,0,7,0,0,0,0,0,4,0,4,0,0,26,0,18,15,10,8,14,0,0,0,893.txt
30,21,2,29,2,15,2,17,2,2,26,2,8,27,17,19,2,27,2,18,29,2,2,24,20,2,2,23,8,15,2,2,2,5,1,1,1,1,17,1,22,22,9,10,28,30,896.txt
1,0,17,1,13,30,17,6,21,4,22,1,15,17,6,15,3,25,26,12,15,12,15,22,0,7,6,9,1,8,3,4,6,4,6,3,3,3,3,3,10,8,9,10,28,26,900.txt
0,0,17,1,8,30,17,6,21,7,22,1,15,17,3,15,29,25,8,21,15,12,22,11,29,7,6,9,5,8,28,4,13,4,2,3,3,3,3,3,10,8,14,2,16,24,902.txt
1,17,22,23,24,19,22,8,19,15,16,21,12,23,6,13,24,8,11,7,26,1,5,20,28,20,21,14,21,17,9,19,14,22,28,22,30,7,13,7,13,15,24,3,17,20,905.txt
30,21,0,27,26,17,19,12,0,0,0,2,18,24,20,5,9,7,18,12,0,0,12,27,7,29,15,25,8,25,13,6,29,20,22,0,26,0,18,15,22,22,14,20,28,30,907.txt
0,0,0,0,0,27,26,20,0,0,0,11,18,24,20,15,9,25,8,20,1,7,23,10,18,7,0,0,0,0,0,4,0,4,22,0,26,0,18,15,10,8,19,12,20,2,909.txt
30,22,0,29,2,15,19,19,2,2,2,2,2,2,19,19,2,27,18,18,25,2,2,27,20,17,2,25,8,22,2,2,2,24,15,2,2,2,2,2,22,22,14,14,3,14,911.txt
0,0,0,0,0,27,26,28,0,0,0,11,21,0,0,15,0,0,8,21,19,7,14,14,17,0,0,0,0,0,0,21,0,0,0,0,26,0,18,15,10,8,14,0,0,0,914.txt
1,17,22,11,20,23,1,7,18,12,28,7,13,21,6,9,5,9,21,24,17,28,6,30,10,28,11,26,18,28,8,27,26,26,18,22,8,25,17,30,29,30,30,17,28,17,917.txt
1,17,17,1,8,30,17,6,21,4,22,1,15,17,6,3,29,4,8,11,15,12,22,14,18,12,6,9,25,8,28,18,19,15,2,3,3,3,3,3,17,20,7,12,28,29,922.txt
0,0,0,0,0,27,26,20,0,0,0,11,18,24,20,15,9,25,26,12,15,12,15,18,0,7,27,21,30,0,0,4,0,4,0,0,26,0,18,15,10,8,18,0,0,10,924.txt
0,0,0,0,0,27,26,28,0,0,0,11,21,0,0,15,0,0,26,12,0,0,15,27,0,0,0,0,0,0,0,21,0,0,0,0,26,0,18,15,10,8,14,0,0,0,925.txt
0,0,0,0,0,27,26,20,0,0,0,11,18,24,20,15,9,25,8,3,15,12,23,14,18,7,6,9,14,8,28,4,21,4,6,23,1,27,17,30,10,8,14,10,28,29,926.txt
1,17,17,1,8,30,17,6,21,6,22,1,15,17,13,26,4,4,8,3,15,12,21,14,11,26,6,9,18,8,11,30,21,26,27,30,29,28,25,27,17,20,7,2,16,26,928.txt
0,0,0,0,0,27,26,20,0,0,0,11,18,24,20,15,9,25,26,12,15,12,15,27,0,7,0,0,0,0,0,4,0,4,6,0,26,0,18,15,10,8,14,10,28,24,930.txt
0,0,0,0,0,27,26,20,0,0,0,11,18,24,20,15,9,25,26,12,15,12,10,27,7,7,0,0,0,0,0,4,0,4,9,0,26,0,18,15,10,8,14,6,6,0,932.txt
1,5,14,24,24,19,3,8,6,15,16,21,3,23,6,13,24,8,8,7,30,23,28,10,27,20,7,8,25,17,20,18,18,15,28,22,11,17,13,24,13,15,24,3,23,18,935.txt
0,0,0,0,0,27,26,20,0,0,0,11,18,24,20,15,9,25,26,12,15,12,15,27,0,7,0,0,0,0,0,4,0,4,0,0,26,0,18,15,10,8,14,0,0,0,940.txt
0,0,0,0,0,27,26,20,0,0,0,11,18,24,20,15,9,25,26,12,15,12,15,27,0,7,0,0,0,0,0,4,0,4,0,0,0,0,0,0,10,8,14,0,0,0,942.txt
1,5,14,16,16,10,12,6,21,21,22,29,15,15,12,25,11,5,12,9,16,9,21,5,25,27,24,3,10,3,18,9,15,11,21,17,27,17,11,30,28,11,21,21,10,4,944.txt
0,0,0,0,0,27,26,20,0,0,0,11,18,24,20,15,9,25,26,12,15,12,15,27,0,7,0,0,0,0,0,4,0,4,0,0,26,0,18,15,10,8,14,0,0,0,946.txt
0,0,0,0,0,27,26,20,0,0,0,11,18,24,20,15,9,25,3,3,15,12,22,29,21,7,6,7,14,8,11,4,18,4,2,0,26,0,18,15,10,8,17,12,16,15,949.txt
0,0,0,0,0,27,26,20,0,0,0,11,18,24,20,15,9,25,26,12,15,12,15,27,0,7,0,0,0,0,0,4,0,4,0,0,26,0,18,15,10,8,14,0,0,0,951.txt
30,21,0,27,26,17,19,11,29,8,14,25,16,13,18,5,21,7,17,2,27,19,12,26,7,29,2,25,8,23,23,2,25,27,6,16,22,2,2,14,22,22,10,20,28,29,954.txt
0,0,0,0,0,27,26,20,0,0,0,11,18,24,20,15,9,25,8,20,12,7,8,14,18,7,0,0,0,6,0,4,8,4,0,11,23,15,21,4,10,8,14,0,0,0,956.txt
1,0,17,1,8,30,17,6,21,15,22,1,15,17,6,15,15,25,26,12,15,12,15,27,0,7,6,7,23,8,18,4,18,4,2,29,25,28,25,26,10,8,14,12,16,15,959.txt
0,0,0,0,0,27,26,20,0,0,0,11,18,24,20,15,9,25,26,12,15,12,11,27,7,7,0,0,0,0,0,4,0,4,0,0,26,0,18,15,10,8,14,0,0,0,961.txt
0,0,0,0,0,27,26,20,0,0,0,11,18,24,20,15,9,0,26,12,0,0,15,27,0,7,0,0,0,0,0,21,0,0,0,0,26,0,18,15,10,8,14,0,0,0,962.txt
30,21,9,29,2,17,19,11,13,2,26,25,8,27,19,19,2,27,21,24,29,2,21,30,11,17,2,25,8,22,23,13,30,5,8,16,12,2,24,10,22,22,16,5,5,0,964.txt
0,0,0,0,0,27,26,20,29,8,14,11,16,13,18,15,21,25,22,25,29,2,21,15,29,7,27,21,30,0,0,20,0,24,9,16,21,2,22,13,22,22,10,6,6,0,966.txt
0,0,0,0,0,27,26,28,0,0,0,11,21,0,0,15,0,0,26,12,0,0,15,18,0,0,27,21,30,0,0,21,0,0,0,0,26,0,18,15,10,8,10,0,0,0,968.txt
0,0,0,0,0,27,26,20,0,0,0,11,18,24,20,15,9,25,26,12,15,12,15,27,0,7,0,0,0,0,0,4,0,4,0,0,26,0,18,15,10,8,19,0,0,0,970.txt
0,0,0,0,0,27,20,28,0,0,0,23,21,0,0,21,0,0,8,5,0,0,3,14,29,0,0,0,0,0,0,21,0,0,0,0,26,0,18,15,6,6,14,0,0,0,974.txt
0,0,0,0,0,27,26,20,0,0,0,11,18,24,20,15,9,25,26,12,15,12,15,27,0,7,0,0,0,0,0,4,0,4,0,0,26,0,18,15,10,8,14,0,0,0,975.txt
0,0,0,0,0,27,26,20,0,0,0,11,18,24,20,15,9,25,26,12,15,12,10,27,7,7,6,7,22,8,18,4,21,4,30,22,13,20,13,30,21,26,14,2,16,15,979.txt
30,21,0,27,26,17,19,12,0,0,0,24,21,0,0,14,0,16,20,12,0,0,10,18,7,16,16,6,9,2,13,21,17,0,9,0,26,0,18,15,10,8,18,6,6,0,981.txt
0,0,0,0,0,27,26,20,0,0,0,11,18,24,20,15,9,25,26,12,15,12,15,27,0,7,0,0,0,0,0,4,0,4,6,0,26,0,18,15,10,8,14,17,28,29,987.txt
0,0,0,0,0,27,26,20,0,0,0,11,18,24,20,15,9,25,26,12,15,12,10,18,7,7,27,21,30,0,0,4,0,4,9,0,26,0,18,15,10,8,10,6,6,10,989.txt
1,1,1,11,1,1,5,1,1,1,8,8,7,9,24,9,1,1,9,12,14,15,0,0,0,12,23,12,5,21,8,18,26,15,14,5,5,5,5,5,15,17,7,13,1,23,994.txt
0,0,0,0,0,27,26,20,0,0,0,11,18,24,20,15,9,0,26,12,15,12,15,27,0,7,0,0,0,4,0,4,8,4,0,11,23,15,21,12,10,8,19,0,0,9,996.txt
0,0,0,0,0,27,26,20,0,0,0,11,18,24,20,15,9,25,26,12,15,12,15,27,0,7,0,0,0,0,0,4,0,4,2,29,25,28,25,26,10,8,5,17,16,15,998.txt
0,0,0,0,0,27,0,28,0,0,0,0,21,0,0,27,0,0,27,12,0,0,15,18,0,0,27,21,30,0,0,21,0,17,0,0,26,0,18,15,12,12,10,0,0,10,1002.txt
0,0,0,0,0,27,26,20,0,0,0,11,18,24,20,15,9,25,8,5,15,12,23,11,18,7,0,0,0,0,0,4,0,4,0,0,26,0,18,15,10,8,14,0,0,0,1005.txt
0,0,0,0,0,27,26,20,0,0,0,11,18,24,20,15,9,25,26,12,15,12,15,27,0,7,6,9,3,8,28,4,13,4,22,18,13,26,12,25,10,8,14,2,16,24,1008.txt
0,0,0,0,0,27,26,20,0,0,0,11,18,24,20,15,9,25,26,12,15,12,15,27,0,7,6,7,23,8,28,4,19,4,2,3,3,3,3,3,10,8,14,2,16,15,1010.txt
0,0,0,0,0,27,26,20,0,0,0,11,18,24,20,15,9,25,26,12,15,12,15,27,0,7,0,0,0,0,0,4,0,4,2,0,26,0,18,15,10,8,14,12,16,24,1013.txt
0,0,0,0,0,27,0,28,0,0,0,0,21,0,0,6,0,0,27,12,0,0,15,18,0,0,27,21,30,0,0,21,0,0,0,0,26,0,18,15,0,25,15,0,0,0,1015.txt
0,0,0,0,0,27,0,28,0,0,0,0,21,0,0,27,0,22,27,12,0,0,15,18,0,0,27,21,30,0,0,6,0,20,3,0,26,0,18,15,12,12,10,17,28,24,1018.txt
1,5,14,16,13,9,17,6,21,16,18,8,13,30,11,3,16,20,21,30,21,1,7,30,10,27,17,17,21,19,20,26,14,7,19,24,15,7,17,7,4,4,4,25,24,1,1020.txt
0,0,0,0,0,27,26,28,0,0,0,11,21,0,0,15,0,0,26,12,0,0,15,27,0,0,0,0,0,0,0,21,0,0,0,0,26,0,18,15,10,8,14,0,0,0,1022.txt
0,0,0,0,0,27,26,20,0,0,0,11,18,24,20,15,9,25,26,12,15,12,12,27,7,7,0,0,0,0,0,4,0,4,9,0,26,0,18,15,10,8,14,6,6,0,1025.txt
0,0,0,0,0,27,26,20,0,0,0,11,18,24,20,15,9,25,8,21,7,7,23,12,29,7,0,0,0,0,0,4,0,4,0,0,26,0,18,15,10,8,14,0,0,0,1027.txt
0,0,0,0,0,27,26,20,0,0,0,11,18,24,20,15,9,25,26,12,15,12,15,18,0,7,27,21,30,7,12,4,5,4,0,9,23,9,14,12,10,8,18,0,0,9,1030.txt
0,0,0,0,0,27,21,28,0,0,0,23,21,0,0,21,0,22,22,15,18,23,3,16,10,0,24,27,16,29,26,14,11,19,3,0,26,0,18,15,6,6,0,27,28,20,1036.txt
0,0,0,0,0,27,26,20,0,0,0,11,18,24,20,15,9,25,26,12,15,12,15,27,0,7,0,0,0,0,0,4,0,4,0,0,26,0,18,15,10,8,14,0,0,0,1041.txt
0,0,0,0,0,27,26,20,0,0,0,11,18,24,20,15,9,25,16,27,19,7,21,5,24,7,0,0,0,0,0,4,0,4,0,0,26,0,18,15,10,8,14,0,0,0,1043.txt
0,0,0,0,0,27,26,20,0,0,0,11,18,24,20,15,9,23,8,11,0,0,22,11,21,7,0,0,0,6,12,21,8,17,0,11,23,15,21,6,10,8,19,0,0,9,1045.txt
0,0,0,0,0,27,26,28,0,0,0,11,21,0,0,15,0,23,26,12,0,0,15,27,0,0,0,0,0,0,0,6,0,20,22,23,8,26,30,25,10,8,14,12,28,24,1046.txt
0,0,0,0,0,27,26,28,0,0,0,11,21,0,0,15,0,0,26,12,0,0,15,27,0,0,0,0,0,0,0,21,0,0,0,0,26,0,18,15,10,8,14,0,0,0,1048.txt
0,0,0,0,0,27,26,20,0,0,0,11,18,24,20,15,9,25,8,15,15,12,8,10,29,7,0,0,0,0,0,4,0,4,10,0,26,0,18,15,10,8,14,12,28,24,1051.txt
0,0,0,0,0,27,26,20,0,0,0,11,18,24,20,15,9,25,26,12,15,12,15,27,0,7,0,0,0,0,0,4,0,4,7,0,26,0,18,15,10,8,14,12,28,30,1054.txt
0,0,0,0,0,27,26,20,0,0,0,11,18,24,20,15,9,23,26,12,0,0,15,18,0,7,27,21,30,0,0,6,0,18,11,0,26,0,18,15,10,8,15,12,15,17,1057.txt
0,0,0,0,0,27,26,20,0,0,0,11,18,24,20,15,9,25,8,11,15,12,22,14,11,7,0,0,0,0,0,4,0,4,5,0,26,0,18,15,10,8,14,4,2,0,1059.txt
0,0,0,0,0,27,26,20,0,0,0,11,18,24,20,15,9,25,8,21,19,7,22,14,21,7,0,0,0,0,0,4,0,4,0,0,26,0,18,15,10,8,19,0,0,0,1060.txt
0,0,0,0,0,27,0,28,0,0,0,0,21,0,0,27,0,23,27,12,0,0,15,27,0,0,0,0,0,0,0,6,0,18,29,26,18,24,12,25,11,12,14,28,29,24,1064.txt
0,0,0,0,0,27,26,20,0,0,0,11,18,24,20,15,9,25,26,12,15,12,15,27,0,7,0,0,0,0,0,4,0,4,0,0,26,0,18,15,10,8,14,0,0,0,1069.txt
0,0,0,0,0,27,26,20,0,0,0,11,18,24,20,15,9,25,26,12,15,12,15,27,0,7,0,0,0,0,0,4,0,4,0,0,26,0,18,15,10,8,14,0,0,0,1071.txt
0,0,0,0,0,27,26,20,0,0,0,11,18,24,20,15,9,25,26,12,15,12,15,27,0,7,0,0,0,0,0,4,0,4,22,0,26,0,18,15,10,8,14,2,16,24,1073.txt
0,0,0,0,0,27,26,28,0,0,0,11,21,0,26,15,19,0,26,12,0,0,15,18,0,9,27,21,30,4,12,21,5,17,0,9,23,9,14,12,10,8,10,0,0,9,1075.txt
0,0,0,0,0,27,26,28,0,0,0,11,24,0,29,15,26,23,26,12,0,30,2,27,19,0,0,0,0,0,0,6,0,20,22,6,8,26,11,19,10,8,14,17,28,30,1076.txt
0,0,0,0,0,27,26,20,0,0,0,11,18,24,20,15,9,25,26,12,15,12,2,27,0,7,0,0,0,0,0,4,0,4,6,23,24,16,10,11,10,8,14,10,28,26,1078.txt
0,0,0,0,0,27,26,20,0,0,0,11,18,24,20,15,9,25,26,12,15,12,15,27,0,7,0,0,0,0,0,4,0,4,2,18,13,26,30,25,10,8,6,2,16,24,1080.txt
30,21,0,27,26,17,19,12,27,8,9,24,16,7,15,5,21,7,17,29,11,14,10,18,7,29,16,6,9,2,13,10,25,23,9,15,21,12,16,10,22,22,10,6,6,0,1082.txt
0,0,0,0,0,27,26,20,0,0,0,11,18,24,20,15,9,25,26,12,15,12,15,27,0,7,0,0,0,0,0,4,0,4,0,0,26,0,18,15,10,8,19,0,0,0,1084.txt
0,0,0,0,0,27,26,20,0,0,0,11,18,24,20,15,9,25,26,12,15,12,10,27,7,7,0,0,0,0,0,4,0,4,2,3,3,3,3,3,10,8,14,2,16,15,1086.txt
0,0,0,0,0,27,0,26,0,0,0,19,21,0,26,6,19,0,28,12,0,0,10,18,22,9,27,21,30,4,12,21,4,0,0,8,23,6,6,6,0,13,18,0,0,11,1088.txt
1,17,17,1,5,29,17,6,8,12,22,1,15,17,3,1,29,9,8,27,7,7,23,10,29,12,18,29,5,29,28,18,13,15,22,19,8,26,7,25,15,17,30,17,28,24,1090.txt
0,0,0,0,0,28,26,20,0,0,0,11,18,24,20,15,9,0,26,12,0,0,2,26,2,7,25,22,28,0,0,21,0,0,5,0,26,0,18,15,10,8,17,4,2,0,1093.txt
0,0,0,0,0,27,26,28,0,0,0,11,21,0,0,15,0,23,26,12,0,0,15,22,0,0,27,21,30,0,0,6,0,6,2,0,26,0,18,15,10,8,17,17,28,24,1094.txt
0,0,5,0,0,27,26,20,0,0,0,11,18,24,20,15,9,25,26,12,15,12,10,18,0,7,27,21,30,0,0,4,0,4,0,0,26,0,18,15,10,8,11,0,0,0,1096.txt
0,0,0,0,0,27,26,28,0,0,0,11,23,0,30,15,26,23,26,12,0,30,15,27,0,0,1,1,3,1,1,24,1,20,7,18,1,16,27,11,10,8,14,20,1,24,1101.txt
0,0,0,0,0,27,26,20,0,0,0,11,18,24,20,15,9,25,26,12,15,12,15,27,0,7,0,0,0,0,0,4,0,4,2,0,26,0,18,15,10,8,14,2,16,15,1105.txt
0,0,0,0,0,27,26,20,0,0,0,11,18,24,20,15,9,25,26,12,15,12,15,27,0,7,0,0,0,0,0,4,0,4,0,0,26,0,18,15,10,8,14,0,0,0,1106.txt
1,16,14,1,15,3,1,7,18,3,22,1,15,17,8,1,29,10,8,27,7,21,23,10,10,3,14,29,18,29,8,19,21,22,22,26,18,18,10,25,24,21,30,14,16,21,1108.txt
0,0,0,0,0,27,26,20,0,0,0,11,18,24,20,15,9,25,26,12,15,12,15,27,0,7,0,0,0,0,0,4,0,4,2,0,26,0,18,15,10,8,14,2,16,24,1109.txt
0,0,0,0,0,27,26,20,0,0,0,11,18,24,20,15,9,25,8,21,15,12,23,14,18,7,6,7,3,8,28,4,13,4,7,23,1,26,12,11,10,8,14,12,19,24,1114.txt
0,0,0,0,0,27,26,20,29,8,9,11,2,7,15,15,21,25,26,2,11,14,10,27,7,7,0,0,0,0,0,2,0,27,9,15,21,2,22,13,21,26,14,6,6,0,1117.txt
0,0,0,0,0,27,26,20,0,0,0,11,18,24,20,15,9,25,26,12,15,12,15,27,0,7,0,0,0,0,0,4,0,4,0,0,26,0,18,15,10,8,19,0,0,8,1118.txt
0,0,0,0,0,27,26,20,0,0,0,11,18,24,20,15,9,25,26,12,15,12,15,27,0,7,0,0,0,0,0,4,0,4,0,0,26,0,18,15,10,8,14,0,0,0,1121.txt
0,0,0,0,0,27,26,20,0,0,0,11,18,24,20,15,9,25,26,12,15,12,0,27,0,7,0,0,0,0,0,4,0,4,6,3,3,3,3,3,10,8,14,2,16,24,1122.txt
0,0,0,0,0,27,26,20,0,0,0,11,18,24,20,15,9,25,26,12,15,12,15,27,0,7,0,0,0,0,0,4,0,4,0,0,26,0,18,15,10,8,19,0,0,0,1124.txt
0,0,0,0,0,27,26,20,0,0,0,11,18,24,20,15,9,25,8,10,15,12,23,14,10,7,0,0,0,0,0,4,0,4,0,0,26,0,18,15,10,8,14,0,0,0,1126.txt
0,0,0,0,0,27,26,20,0,0,0,11,18,24,20,15,9,25,26,12,15,12,15,18,7,7,27,21,30,0,0,4,0,4,9,0,26,0,18,15,10,8,10,6,6,0,1128.txt
0,0,0,0,0,27,26,20,0,0,0,11,18,24,20,15,9,25,23,11,15,12,21,15,11,7,6,9,1,8,3,4,6,4,2,0,26,0,18,15,10,8,14,17,28,26,1130.txt
0,0,0,0,0,27,26,20,0,0,0,11,18,24,20,15,9,23,26,12,0,30,15,27,0,7,0,0,0,0,0,6,0,6,22,6,1,26,17,19,10,8,14,17,28,30,1135.txt
0,0,0,0,0,27,26,20,0,0,0,11,18,24,20,15,9,25,26,12,15,12,15,22,0,7,25,22,28,0,0,4,0,4,7,0,26,0,18,15,10,8,17,12,16,30,1136.txt
0,0,0,0,0,27,26,20,0,0,0,11,18,24,20,15,9,25,26,12,15,12,15,27,0,7,0,0,0,0,0,4,0,4,0,0,26,0,18,15,10,8,14,0,0,0,1137.txt
0,0,17,1,13,9,17,6,21,16,22,1,15,17,13,15,25,25,8,11,21,28,21,14,30,7,9,30,23,29,11,4,18,4,22,6,13,27,11,19,10,8,14,12,28,30,1139.txt
1,17,17,1,5,4,17,6,21,12,22,1,15,17,6,27,29,23,8,25,0,30,3,12,10,0,14,29,18,29,7,15,21,20,3,20,8,22,11,29,24,21,7,17,14,30,1141.txt
0,0,5,0,0,27,26,20,0,0,0,11,18,24,20,15,9,25,8,7,15,12,5,10,28,7,21,14,21,17,8,4,21,4,28,22,30,19,13,30,10,8,10,14,16,18,1143.txt
0,0,0,0,0,27,0,28,0,0,0,0,21,0,0,6,0,0,27,12,0,0,15,18,0,0,27,21,30,0,0,21,0,0,0,0,26,0,18,15,0,25,10,0,0,0,1147.txt
0,0,0,0,0,27,0,23,0,0,0,0,21,0,0,6,0,0,8,11,0,0,22,11,11,0,27,21,30,6,0,21,5,16,0,9,23,9,14,12,11,25,17,0,0,9,1149.txt
0,0,5,0,0,27,26,20,0,0,0,11,18,24,20,15,9,25,26,12,15,12,15,18,0,7,27,21,30,0,0,4,0,4,0,0,26,0,18,15,10,8,10,0,0,0,1151.txt
0,0,0,0,0,27,26,20,0,0,0,11,18,24,20,15,9,25,26,12,15,12,15,27,0,7,0,0,0,0,0,4,0,4,1,18,1,16,7,18,10,8,14,2,16,24,1152.txt
0,0,0,0,0,27,26,20,0,0,0,11,18,24,20,15,9,25,26,12,15,12,15,27,0,7,0,0,0,0,0,4,0,4,0,0,26,0,18,15,10,8,14,0,0,0,1156.txt
0,0,5,0,0,27,0,28,0,0,0,0,21,0,0,6,0,0,27,12,0,0,2,23,5,0,27,21,30,6,0,21,5,0,5,9,10,9,14,6,11,25,17,4,2,0,1158.txt
0,0,0,0,0,27,26,20,0,0,0,11,18,24,20,15,9,25,23,7,15,12,22,15,10,7,27,21,30,0,0,4,0,4,9,0,26,0,18,15,2,14,15,6,6,0,1161.txt
0,0,0,0,0,27,26,28,0,0,0,11,21,0,0,15,0,23,22,21,0,0,3,17,18,0,0,0,0,0,0,6,0,20,22,0,26,0,18,15,10,8,14,12,28,24,1166.txt
0,0,0,0,0,27,0,20,30,8,10,0,8,28,18,30,21,23,28,2,29,2,15,2,5,7,25,22,28,0,0,13,0,29,8,16,12,2,23,10,22,22,16,5,5,0,1168.txt
1,26,14,11,13,6,9,5,26,27,6,7,5,21,6,11,30,8,4,4,29,2,30,4,26,22,23,12,17,21,8,18,23,15,14,5,5,5,5,28,13,15,24,27,27,14,1169.txt
0,0,0,0,0,27,26,20,0,0,0,11,18,24,20,15,9,25,8,16,15,12,5,10,28,7,6,18,7,8,8,4,21,4,6,0,26,0,18,15,10,8,14,13,1,24,1171.txt
0,0,0,0,0,27,26,20,0,0,0,11,18,24,20,15,9,0,26,12,0,0,15,27,0,7,0,0,0,6,0,21,8,0,0,11,23,15,21,12,10,8,14,0,0,0,1175.txt
0,0,0,0,0,27,26,20,0,0,0,11,18,24,20,15,9,25,8,3,15,12,23,14,18,7,6,9,14,8,28,4,21,4,1,1,1,1,11,1,10,8,17,2,16,30,1177.txt
1,17,17,1,24,24,17,6,8,4,22,29,15,17,6,24,13,9,8,10,20,23,20,11,10,12,18,27,16,29,26,18,11,15,3,20,8,14,28,17,15,17,30,17,14,30,1179.txt
0,0,0,0,0,27,0,28,0,0,0,0,21,0,0,27,0,0,27,12,0,0,15,18,0,0,27,21,30,0,0,21,0,0,0,0,26,0,18,15,0,12,18,0,0,0,1183.txt
1,0,17,1,24,4,1,7,18,15,22,1,15,17,6,15,29,25,8,22,15,12,23,11,18,7,6,9,18,8,8,4,21,4,6,25,8,16,12,25,10,8,16,1,28,29,1184.txt
1,17,30,20,3,11,3,9,6,15,3,3,3,3,6,3,15,4,8,5,22,22,20,11,10,12,24,27,16,29,26,18,11,15,22,19,19,22,11,29,17,20,7,10,28,17,1190.txt
1,5,14,1,5,4,17,6,21,12,22,1,15,17,6,3,29,20,8,14,0,30,23,10,10,12,19,11,19,19,28,26,21,7,10,26,24,24,1,30,4,4,4,17,28,17,1192.txt
0,0,0,0,0,27,26,20,0,0,0,11,18,24,20,15,9,25,26,12,15,12,12,27,12,7,0,0,0,0,0,4,0,4,21,0,26,0,18,15,10,8,14,2,16,18,1194.txt
0,0,0,0,0,27,26,20,0,0,0,11,18,24,20,15,9,23,26,12,0,0,11,27,7,7,0,0,0,0,0,24,0,20,6,0,26,0,18,15,10,8,14,13,11,26,1196.txt
0,0,0,0,0,27,26,20,0,0,0,11,18,24,20,15,9,25,26,12,15,12,15,18,0,7,27,21,30,0,0,4,0,4,0,0,26,0,18,15,10,8,10,0,0,0,1197.txt
0,0,0,0,0,27,26,20,0,0,0,11,18,24,20,15,9,25,26,12,15,12,15,27,0,7,0,0,0,6,12,4,8,4,0,11,23,15,21,12,10,8,14,0,0,0,1199.txt
0,0,5,0,0,27,26,20,5,9,9,11,16,7,15,15,22,25,26,18,11,13,10,18,7,7,27,21,30,0,0,10,0,24,9,15,21,12,16,13,20,23,10,6,6,0,1201.txt
0,0,0,0,0,27,26,20,0,0,0,11,18,24,20,15,9,25,26,12,15,12,15,27,7,7,0,0,0,0,0,4,0,4,9,0,26,0,18,15,10,8,14,6,6,0,1203.txt
0,0,0,0,0,27,26,20,0,0,0,11,18,24,20,15,9,25,26,12,15,12,15,27,0,7,0,0,0,0,0,4,0,4,0,0,26,0,18,15,10,8,14,0,0,0,1205.txt
1,5,14,1,7,9,12,6,24,21,23,29,17,15,10,13,5,14,13,13,28,23,27,20,26,22,22,15,25,27,8,29,12,30,29,22,17,17,30,24,8,10,8,24,17,20,1207.txt
0,0,0,0,0,27,0,23,0,0,0,0,21,0,0,6,0,0,27,12,0,0,15,18,0,0,27,21,30,0,0,21,0,17,0,0,26,0,18,15,0,12,2,0,0,8,1211.txt
0,0,0,0,0,27,26,20,0,0,0,11,18,24,20,15,9,25,26,12,15,12,15,27,0,7,0,0,0,6,0,4,8,4,4,11,23,15,21,12,10,8,19,2,16,24,1214.txt
0,0,0,0,0,27,26,20,0,0,0,11,18,24,20,15,9,25,26,12,15,12,15,27,0,7,0,0,0,0,0,4,0,4,0,0,26,0,18,15,10,8,19,0,0,0,1216.txt
0,0,0,0,0,27,26,20,0,0,0,11,18,24,20,15,9,25,26,12,15,12,15,27,0,7,0,0,0,0,0,4,0,4,0,0,26,0,18,15,10,8,14,0,0,0,1217.txt
0,0,0,0,0,27,26,28,0,0,0,11,21,0,0,15,0,23,8,11,22,24,22,14,18,0,9,27,16,29,7,24,11,20,22,0,26,0,18,15,10,8,14,20,28,30,1219.txt
0,0,0,0,0,27,0,0,0,0,0,0,21,0,0,6,0,0,0,12,0,0,2,2,20,0,25,19,28,0,0,0,0,0,0,0,0,0,0,0,0,25,2,0,0,0,1221.txt
1,5,14,1,13,3,17,6,21,16,22,1,15,17,8,3,29,20,23,10,21,21,23,5,10,3,24,17,22,19,28,26,21,7,22,6,15,24,11,30,4,4,4,3,16,22,1225.txt
0,0,0,0,0,27,26,20,0,0,0,11,18,24,20,15,9,0,26,12,0,0,15,27,0,7,0,0,0,0,0,21,0,17,0,0,26,0,18,15,10,8,14,0,0,9,1228.txt
0,0,0,0,0,27,26,28,11,2,9,11,16,7,15,15,2,23,26,18,11,14,10,18,7,0,13,18,22,11,18,2,21,27,26,29,25,28,25,26,21,26,10,2,16,26,1230.txt
0,0,0,0,0,27,26,20,0,0,0,11,18,24,20,15,9,25,8,21,19,7,20,10,29,7,9,28,7,30,17,4,13,4,22,0,26,0,18,15,10,8,0,12,16,24,1234.txt
0,0,0,0,0,27,26,20,0,0,0,11,18,24,20,15,9,25,26,12,15,12,15,27,0,7,0,0,0,0,0,4,0,4,2,18,13,26,7,11,10,8,14,12,19,24,1237.txt
1,1,1,1,1,1,17,1,1,1,22,1,15,17,3,1,12,15,8,21,7,7,14,11,17,23,1,1,3,1,1,25,1,13,6,18,24,27,7,25,4,4,4,17,1,24,1239.txt
1,5,14,16,13,3,12,6,21,16,7,8,6,11,8,13,24,20,11,7,30,23,5,20,28,20,29,15,22,17,17,26,14,7,28,22,13,17,13,24,4,4,4,30,24,19,1241.txt
0,0,0,0,0,27,0,20,0,0,0,16,18,24,20,27,9,25,27,12,15,12,10,18,0,7,27,21,30,0,0,4,0,4,6,3,3,3,3,3,11,13,2,2,16,29,1243.txt
1,5,14,1,13,3,17,6,21,16,22,1,15,17,8,3,4,14,7,24,22,22,20,8,11,27,23,12,22,21,28,16,23,12,22,23,1,16,17,19,8,10,8,30,24,30,1245.txt
0,0,0,0,0,27,26,28,0,0,0,11,24,0,29,15,27,23,26,12,0,30,2,22,12,0,6,7,27,8,26,23,11,20,2,3,3,3,3,3,10,8,22,17,28,15,1249.txt
0,0,0,0,0,27,26,28,0,0,0,11,24,0,29,15,26,23,12,9,0,30,3,17,29,0,0,0,0,0,0,6,0,19,4,18,16,22,30,29,10,8,19,28,19,24,1251.txt
0,0,5,0,0,27,26,20,5,9,9,11,16,7,15,15,22,23,21,24,21,5,7,30,30,7,24,10,18,12,18,13,21,5,3,1,8,1,17,1,20,23,10,28,19,30,1254.txt
0,0,0,0,0,27,26,20,0,0,0,11,18,24,20,15,9,25,26,12,15,12,15,27,5,7,6,9,18,8,11,4,21,4,27,30,29,28,25,27,10,8,14,2,16,29,1255.txt
0,0,0,0,0,27,0,20,0,0,0,19,18,24,20,6,9,25,0,12,15,12,15,22,22,7,27,21,30,6,5,4,5,4,0,9,10,9,14,12,11,25,9,0,0,9,1267.txt
1,5,14,1,8,9,1,7,18,20,22,1,15,17,13,26,25,20,8,22,15,12,21,14,11,26,9,3,18,3,8,26,21,7,22,25,1,27,11,19,4,4,4,2,16,30,1271.txt
1,5,14,11,24,4,16,6,21,16,17,30,4,20,8,16,13,20,4,4,20,25,20,4,21,3,24,17,15,13,6,26,9,7,21,7,14,18,8,23,4,4,4,28,28,17,1274.txt
0,0,0,0,0,27,26,20,0,0,0,11,18,24,20,15,9,25,26,12,15,12,15,27,0,7,0,0,0,6,12,4,8,4,0,11,23,15,21,12,10,8,14,0,0,9,1276.txt
1,5,14,1,13,3,17,6,21,16,22,29,15,17,8,3,15,8,8,11,21,29,7,12,21,3,14,17,21,19,20,18,18,15,12,20,13,24,17,24,13,15,24,20,16,30,1278.txt
0,0,0,0,0,27,26,20,0,0,0,11,18,24,20,15,9,25,26,12,15,12,15,27,0,7,0,0,0,0,0,4,0,4,2,3,3,3,3,3,10,8,5,2,16,15,1280.txt
1,17,22,16,3,9,1,7,18,17,18,8,13,30,13,3,29,28,8,14,7,21,23,12,10,13,14,29,22,29,8,8,26,10,22,24,18,24,17,19,24,19,7,17,18,30,1283.txt
1,5,14,11,13,3,12,6,21,16,18,30,4,20,8,13,24,20,11,7,11,14,5,20,28,10,8,7,19,10,28,26,23,7,14,5,5,5,5,28,4,4,4,28,28,15,1285.txt
30,21,0,29,2,17,19,12,20,2,26,2,2,2,17,19,2,27,18,18,13,2,12,27,12,17,16,25,8,25,13,20,2,24,5,15,21,2,2,13,22,22,14,4,2,0,1287.txt
0,0,0,0,0,27,26,20,0,0,0,11,18,24,20,15,9,25,26,12,15,12,15,27,0,7,0,0,0,6,12,4,8,4,0,11,23,15,21,12,10,8,14,0,0,9,1288.txt
2,5,14,20,13,3,22,9,19,16,3,3,12,3,8,3,15,20,23,11,21,28,7,5,21,3,24,17,19,19,20,26,14,7,13,6,14,26,10,30,4,4,4,17,24,30,1290.txt
1,5,14,16,13,3,12,6,21,16,7,9,6,11,8,13,29,20,11,7,30,21,5,20,28,10,21,14,22,17,28,26,14,7,28,22,13,20,11,30,8,10,8,30,24,17,1292.txt
0,0,0,0,0,27,26,20,0,0,0,11,18,24,20,15,9,25,22,7,15,12,22,17,29,7,0,0,0,0,0,4,0,4,3,0,26,0,18,15,10,8,19,17,28,24,1295.txt
1,8,17,1,8,9,1,7,18,20,1,1,1,17,13,25,4,4,1,1,15,12,21,1,11,12,9,30,14,30,8,27,21,26,22,23,7,16,17,19,14,16,7,2,16,30,1297.txt
0,0,0,0,0,27,26,20,0,0,0,11,18,24,20,15,9,25,11,7,15,12,5,20,28,7,0,0,0,0,0,4,0,4,0,0,26,0,18,15,10,8,14,0,0,0,1300.txt
1,17,22,1,5,4,10,6,21,13,22,1,15,17,3,1,29,9,8,9,19,7,3,10,24,12,24,28,12,30,7,19,14,22,3,20,8,22,11,11,17,20,26,1,28,24,1302.txt
0,0,0,0,0,27,26,20,0,0,0,11,18,24,20,15,9,25,26,12,15,12,15,27,0,7,0,0,0,0,0,4,0,4,0,0,26,0,18,15,10,8,6,0,0,10,1303.txt
0,0,0,0,0,27,26,20,0,0,0,11,18,24,20,15,9,26,26,12,15,12,2,27,2,7,0,0,0,0,0,28,0,3,0,0,26,0,18,15,30,5,14,0,0,0,1305.txt
0,0,0,0,0,27,0,28,0,0,0,0,21,0,0,27,0,22,27,12,0,0,15,27,0,0,0,0,0,0,0,6,0,20,22,0,26,0,18,15,12,12,14,12,28,24,1307.txt
0,0,0,0,0,27,26,20,5,9,9,11,8,7,15,15,22,25,26,17,11,14,2,26,7,7,27,21,30,0,14,2,17,27,5,2,2,2,2,2,20,23,18,4,2,0,1309.txt
0,0,0,0,0,27,26,20,0,0,0,11,18,24,20,15,9,25,26,12,15,12,15,27,0,7,0,0,0,0,0,4,0,4,22,26,8,24,12,24,10,8,19,12,28,24,1311.txt
0,0,0,0,0,27,26,20,0,0,0,11,18,24,20,15,9,25,26,12,15,12,15,27,0,7,0,0,0,6,0,4,8,4,0,11,23,15,21,12,10,8,19,0,0,0,1314.txt
0,0,0,0,0,27,26,28,0,0,0,11,21,0,0,15,0,0,26,12,0,0,15,27,0,0,0,0,0,6,0,21,8,17,0,11,23,15,21,12,10,8,14,0,0,9,1315.txt
0,0,0,0,0,27,0,28,0,0,0,0,21,0,0,30,0,23,27,12,0,0,15,18,0,0,27,21,30,0,0,15,0,20,6,0,26,0,18,15,0,13,15,20,28,24,1317.txt
0,0,0,0,0,27,26,20,0,0,0,11,18,24,20,15,9,25,26,12,15,12,15,18,0,7,28,22,28,0,0,4,0,4,0,0,26,0,18,15,10,8,10,0,0,0,1318.txt
0,0,0,0,0,27,26,20,0,0,0,11,18,24,20,15,9,25,26,12,15,12,15,27,0,7,0,0,0,0,0,4,0,4,0,0,26,0,18,15,10,8,14,0,0,0,1320.txt
0,0,0,0,0,27,26,20,0,0,0,11,18,24,20,15,9,25,26,12,15,12,15,27,0,7,0,0,0,0,0,4,0,4,0,0,26,0,18,15,10,8,14,0,0,0,1323.txt
0,0,0,0,0,27,26,20,0,0,0,11,18,24,20,15,9,25,26,12,15,12,15,27,12,7,0,0,0,0,0,4,0,4,5,0,26,0,18,15,10,8,14,4,2,0,1325.txt
0,0,0,0,0,27,0,20,0,0,0,0,18,24,20,6,9,0,27,12,0,0,10,18,7,7,27,21,30,0,0,21,0,0,9,0,26,0,18,15,11,12,10,6,6,0,1327.txt
0,0,0,0,0,27,26,20,29,8,9,11,16,7,15,15,21,25,26,2,11,14,10,18,7,7,27,21,30,0,0,2,0,24,6,16,21,2,22,13,20,23,10,17,28,29,1329.txt
0,0,10,0,0,27,0,28,0,0,0,0,19,0,0,30,0,22,8,27,0,0,22,12,10,0,27,21,30,0,0,21,0,0,0,0,26,0,18,15,11,13,10,0,0,0,1331.txt
0,0,0,0,0,27,26,20,0,0,0,11,18,24,20,15,9,25,26,12,15,12,15,27,0,7,0,0,0,6,12,4,4,4,0,8,23,6,6,12,10,8,14,0,0,10,1332.txt
0,0,0,0,0,27,26,20,0,0,0,11,18,24,20,15,9,23,8,11,0,30,22,11,10,7,0,0,0,0,0,23,0,20,22,6,13,26,7,19,10,8,14,17,28,30,1335.txt
1,8,22,1,24,4,1,7,18,4,22,1,15,17,6,3,13,28,1,1,0,30,21,1,21,12,23,12,19,21,11,18,26,15,25,5,5,5,5,28,17,20,7,17,28,26,1337.txt
0,0,0,0,0,27,26,20,0,0,0,11,18,24,20,15,9,25,26,12,15,12,15,27,0,7,0,0,0,0,24,4,0,4,22,22,13,24,10,19,10,8,14,2,16,18,1339.txt
0,0,0,0,0,27,26,20,0,0,0,11,18,24,20,15,9,25,26,12,15,12,15,27,0,7,0,0,0,0,0,4,0,4,7,0,26,0,18,15,10,8,14,2,16,24,1341.txt
0,0,0,0,0,27,26,20,0,0,0,11,18,24,20,15,9,25,26,12,15,12,15,27,0,7,0,0,0,0,0,4,0,4,0,0,26,0,18,15,10,8,14,0,0,0,1344.txt
0,0,0,0,0,27,26,20,0,0,0,11,18,24,20,15,9,25,26,12,15,12,15,27,0,7,0,0,0,0,0,4,0,4,0,0,26,0,18,15,10,8,14,0,0,0,1346.txt
0,0,0,0,0,27,26,20,0,0,0,11,18,24,20,0,9,25,8,3,15,12,23,14,18,6,0,0,0,0,0,4,0,4,0,0,26,0,18,15,10,8,14,0,0,0,1348.txt
28,5,14,16,3,3,1,7,17,17,18,9,26,11,8,8,24,20,11,7,30,21,27,20,28,20,21,14,18,17,9,26,15,25,11,17,17,23,11,20,1,1,1,8,24,17,1351.txt
0,0,0,0,0,27,26,20,0,0,0,11,18,24,20,15,9,25,26,12,15,12,15,27,0,7,0,0,0,0,0,4,0,4,0,0,26,0,18,15,10,8,14,0,0,0,1352.txt
0,0,0,0,0,27,26,28,0,0,0,11,21,0,0,15,0,0,8,5,0,0,23,10,29,0,27,21,30,0,24,21,0,0,0,0,26,0,18,15,10,8,10,0,0,0,1354.txt
0,0,0,0,0,27,26,20,0,0,0,11,18,24,20,15,9,25,26,12,15,12,15,18,0,7,27,21,30,6,0,4,5,4,0,9,10,9,14,12,10,8,10,0,0,10,1356.txt
0,0,0,0,0,27,26,20,0,0,0,11,18,24,20,15,9,0,26,12,0,0,2,22,19,7,27,21,30,0,13,21,29,0,5,0,26,0,18,15,22,22,17,4,2,0,1358.txt
30,21,5,27,26,17,19,12,5,9,9,24,16,7,15,14,22,16,20,29,11,14,10,18,7,30,16,6,9,2,13,20,17,24,9,16,21,12,16,13,20,23,10,6,6,0,1360.txt
0,0,0,0,0,27,26,20,0,0,0,11,18,24,20,15,9,25,26,12,15,12,15,18,0,7,6,9,18,8,28,4,21,4,6,3,3,3,3,3,10,8,10,20,16,26,1362.txt
0,0,0,0,0,27,26,20,0,0,0,11,18,24,20,15,9,25,26,12,15,12,2,27,7,7,0,0,0,0,0,4,0,4,5,0,26,0,18,15,10,8,14,4,2,0,1364.txt
0,0,0,0,0,27,26,20,0,0,0,11,18,24,20,15,9,25,26,12,15,12,10,27,0,7,0,0,0,0,0,4,0,4,2,0,26,0,18,15,10,8,14,2,16,15,1367.txt
0,0,17,1,5,23,17,6,21,12,22,1,15,17,6,15,29,23,26,12,0,30,15,18,0,0,6,9,18,8,7,24,21,19,6,3,3,3,3,3,10,8,10,17,11,14,1368.txt
0,0,0,0,0,27,26,20,0,0,0,11,18,24,20,15,9,25,8,10,15,12,22,12,10,7,6,7,18,8,18,4,21,4,25,0,26,0,18,15,10,8,14,2,16,15,1371.txt
0,0,5,0,0,27,26,28,0,0,0,11,21,0,0,15,0,23,26,12,0,0,10,18,5,0,27,21,30,0,0,23,0,20,22,0,26,0,18,15,10,8,16,20,28,30,1372.txt
0,0,0,0,0,27,26,20,0,0,0,11,18,24,20,15,9,0,26,12,0,0,15,22,0,7,27,21,30,0,0,21,0,0,0,0,26,0,18,15,10,8,11,0,0,0,1375.txt
0,0,0,0,0,27,0,28,0,0,0,0,21,0,0,6,0,0,0,12,0,0,2,2,0,0,25,19,28,0,0,21,0,0,0,0,26,0,18,15,12,25,17,0,0,0,1377.txt
0,0,0,0,0,27,26,20,0,0,0,11,18,24,20,15,9,0,8,11,22,24,23,14,18,7,27,21,30,0,0,21,0,0,0,0,26,0,18,15,10,8,16,0,0,0,1379.txt
0,0,0,0,0,27,26,20,0,0,0,11,18,24,20,15,9,25,15,12,3,15,10,28,5,7,6,9,19,8,28,4,21,4,30,3,3,3,3,3,20,23,14,23,16,28,1380.txt
0,0,5,0,0,27,0,20,0,0,0,0,18,24,20,6,9,0,28,12,0,0,11,24,2,7,27,21,30,6,0,21,5,16,5,9,10,9,14,6,22,22,9,4,2,9,1383.txt
0,0,0,0,0,27,26,20,0,0,0,11,18,24,20,15,9,25,26,12,15,12,10,27,7,7,0,0,0,0,0,4,0,4,6,0,26,0,18,15,22,22,14,2,16,29,1389.txt
1,17,17,1,5,19,17,6,21,12,22,1,15,17,6,13,29,10,8,7,30,21,5,10,28,20,21,14,19,26,28,18,21,15,28,22,8,21,11,30,29,21,29,28,15,17,1390.txt
0,0,0,0,0,27,26,20,0,0,0,11,18,24,20,15,9,25,26,12,15,12,10,27,7,7,0,0,0,0,0,4,0,4,0,0,26,0,18,15,10,8,14,0,0,0,1392.txt
0,0,0,0,0,27,26,28,0,0,0,11,21,0,0,15,0,22,26,12,0,0,15,18,0,0,28,22,28,0,0,21,0,0,0,0,26,0,18,15,10,8,10,0,0,0,1395.txt
0,0,0,0,0,27,26,20,0,0,0,11,18,24,20,15,9,25,26,12,15,12,15,27,2,7,0,0,0,0,0,4,0,4,0,0,26,0,18,15,10,8,14,0,0,0,1396.txt
0,0,0,0,0,27,26,20,0,0,0,11,18,24,20,15,9,25,26,12,15,12,15,18,0,7,27,21,30,0,0,4,0,4,18,0,26,0,18,15,10,8,10,2,16,17,1398.txt
0,0,0,0,0,27,26,20,0,0,0,11,18,24,20,15,9,25,8,11,15,12,23,11,18,7,0,0,0,6,0,4,8,4,0,11,23,15,21,12,10,8,14,0,0,0,1400.txt
0,0,0,0,0,27,0,20,0,0,0,0,18,24,20,27,9,25,27,12,15,12,15,18,7,7,27,21,30,0,0,4,0,4,0,0,26,0,18,15,11,12,2,0,0,0,1402.txt
0,0,0,0,0,27,26,20,0,0,0,11,18,24,20,15,9,25,26,12,15,12,2,27,7,7,0,0,0,0,0,4,0,4,6,0,26,0,18,15,10,8,14,2,16,26,1405.txt
0,0,0,0,0,27,26,20,0,0,0,11,18,24,20,15,9,25,26,12,15,12,15,27,0,7,0,0,0,0,0,4,0,4,0,0,26,0,18,15,10,8,14,0,0,0,1407.txt
0,0,0,0,0,27,26,20,0,0,0,11,18,24,20,15,9,25,26,12,15,12,15,27,0,7,0,0,0,0,0,4,0,4,0,0,26,0,18,15,10,8,14,0,0,0,1409.txt
1,5,14,1,13,3,12,6,21,16,22,1,15,17,8,13,11,8,4,4,26,1,7,4,14,3,21,14,21,17,17,18,14,15,28,7,13,7,8,7,13,15,24,3,16,1,1412.txt
0,0,0,0,0,27,26,20,0,0,0,11,18,24,20,15,9,25,8,11,15,12,23,14,18,7,0,0,0,0,0,4,0,4,0,0,26,0,18,15,10,8,14,0,0,0,1416.txt
0,0,0,0,0,27,26,20,0,0,0,11,18,24,20,15,9,0,26,12,0,0,11,22,5,7,27,21,30,0,16,21,17,0,8,0,26,0,18,15,10,8,16,5,5,0,1418.txt
0,0,0,0,0,27,26,20,0,0,0,11,18,24,20,15,9,25,23,27,15,12,22,17,29,7,6,7,12,8,18,4,13,4,2,0,26,0,18,15,10,8,14,2,16,24,1421.txt
30,21,0,27,26,17,19,12,5,9,9,24,2,7,15,14,22,16,25,29,11,14,10,27,7,16,16,25,8,22,16,13,17,29,9,15,21,12,16,13,22,22,14,6,6,0,1422.txt
0,0,0,0,0,27,26,20,0,0,0,11,18,24,20,15,9,25,26,12,15,12,15,27,0,7,0,0,0,0,0,4,0,4,2,0,26,0,18,15,10,8,14,12,28,24,1425.txt
0,0,0,0,0,27,0,20,0,0,0,0,18,24,20,29,9,23,0,12,0,0,15,22,0,7,28,19,28,0,0,24,0,6,30,0,0,0,0,0,11,25,17,20,28,29,1427.txt
0,0,0,0,0,27,26,20,0,0,0,11,18,24,20,15,9,25,26,12,15,12,15,27,0,7,0,0,0,0,0,4,0,4,6,0,26,0,18,15,10,8,14,2,16,29,1429.txt
0,0,0,0,0,27,26,20,0,0,0,11,18,24,20,15,9,25,26,12,15,12,15,27,0,7,0,0,0,0,0,4,0,4,0,0,26,0,18,15,10,8,14,0,0,0,1431.txt
0,0,0,0,0,27,26,20,0,0,0,11,18,24,20,15,9,25,8,11,23,20,23,11,18,7,6,9,18,8,28,4,21,4,22,19,8,27,11,19,10,8,14,17,28,17,1433.txt
0,0,0,0,0,27,0,20,0,0,0,0,18,24,20,27,9,25,27,12,15,12,15,27,0,7,0,0,0,6,0,4,5,4,0,9,10,9,14,12,11,12,14,0,0,0,1434.txt
0,0,0,0,0,27,0,20,0,0,0,0,18,24,20,27,9,25,27,12,15,12,15,27,0,7,0,0,0,6,0,4,5,4,0,9,10,9,14,12,11,12,14,0,0,0,1436.txt
0,0,0,0,0,27,0,28,0,0,0,19,21,0,26,27,19,0,4,4,0,0,5,4,28,9,27,21,30,4,12,21,4,17,0,8,23,6,6,12,0,12,10,0,0,9,1439.txt
0,0,0,0,0,27,26,20,0,0,0,11,18,24,20,15,9,25,26,12,15,12,15,27,0,7,0,0,0,0,0,4,0,4,0,0,26,0,18,15,10,8,14,0,0,0,1441.txt
0,0,0,0,0,27,26,20,0,0,0,11,18,24,20,15,9,25,26,12,15,12,15,27,0,7,0,0,0,0,0,4,0,4,6,3,3,3,3,3,10,8,14,2,16,26,1442.txt
0,0,0,0,0,27,26,20,0,0,0,11,18,24,20,15,9,0,26,12,0,0,15,22,0,7,28,22,28,0,0,21,0,0,0,0,26,0,18,15,10,8,11,0,0,0,1444.txt
0,0,5,0,0,27,26,28,0,0,0,11,21,0,0,15,0,0,26,12,0,0,10,18,5,0,27,21,30,0,0,21,0,0,8,0,26,0,18,15,10,8,16,5,5,0,1446.txt
0,0,0,0,0,27,26,20,0,0,0,11,18,24,20,15,9,25,26,12,15,12,2,22,20,7,27,21,30,0,0,4,0,4,5,0,26,0,18,15,10,8,16,4,2,0,1448.txt
0,0,0,0,0,27,26,20,0,0,0,11,18,24,20,15,9,25,26,12,15,12,15,27,0,7,0,0,0,0,0,4,0,4,0,0,26,0,18,15,10,8,14,0,0,0,1451.txt
0,0,0,0,0,27,26,20,0,0,0,11,18,24,20,15,9,25,26,12,15,12,15,27,0,7,0,0,0,0,0,4,0,4,0,0,26,0,18,15,10,8,14,0,0,0,1453.txt
0,0,14,1,8,3,17,6,21,20,22,29,15,17,8,15,15,25,8,5,22,22,20,11,21,7,14,3,19,3,17,4,21,4,12,0,26,0,18,15,20,23,10,15,16,22,1454.txt
1,17,17,1,5,4,17,6,21,12,22,1,15,29,6,3,3,4,8,11,7,22,23,14,18,12,6,12,1,8,28,30,6,26,6,21,24,16,11,19,17,20,7,1,28,26,1456.txt
0,0,0,0,0,27,0,28,0,0,0,0,21,0,0,27,0,0,27,12,0,0,15,18,0,0,27,21,30,4,0,21,4,0,0,8,23,6,6,6,0,12,10,0,0,0,1458.txt
0,0,0,0,0,27,26,20,0,0,0,11,18,24,20,15,9,25,26,12,15,12,15,27,0,7,0,0,0,0,0,4,0,4,0,0,26,0,18,15,10,8,14,0,0,0,1460.txt
0,0,0,0,0,27,26,20,0,0,0,11,18,24,20,15,9,25,8,3,15,12,23,29,18,7,6,7,27,8,28,4,10,4,22,6,8,26,11,11,10,8,9,20,28,30,1462.txt
0,0,0,0,0,27,26,20,0,0,0,11,18,24,20,15,9,25,26,12,15,12,15,27,0,7,0,0,0,0,0,4,0,4,22,18,8,26,27,25,10,8,14,17,19,24,1465.txt
0,0,0,0,0,27,26,20,0,0,0,11,18,24,20,15,9,25,26,12,15,12,15,27,0,7,0,0,0,0,0,4,0,4,0,0,26,0,18,15,10,8,14,0,0,10,1467.txt
0,0,0,0,0,27,26,20,0,0,0,11,18,24,20,15,9,25,8,11,15,12,22,14,11,7,0,0,0,0,0,4,0,4,0,0,26,0,18,15,10,8,19,0,0,10,1469.txt
1,5,14,1,13,3,17,6,21,16,22,29,15,17,8,3,15,20,8,11,21,22,7,12,10,3,19,11,22,19,28,26,21,7,22,6,13,18,17,25,4,4,4,3,16,22,1470.txt
12,17,14,20,8,30,3,9,6,6,3,3,3,3,7,3,4,8,30,2,25,2,2,27,2,26,13,9,1,11,3,18,21,15,15,30,29,28,25,27,13,15,24,15,22,29,1473.txt
0,0,0,0,0,27,26,20,0,0,0,11,18,24,20,15,9,25,26,12,15,12,15,27,0,7,6,9,20,8,6,4,9,4,6,24,1,16,11,18,10,8,14,10,28,26,1475.txt
0,0,0,0,0,27,0,20,0,0,0,0,18,24,20,6,9,0,28,12,15,12,11,23,0,7,27,21,30,0,0,4,0,4,0,0,26,0,18,15,11,25,10,0,0,0,1477.txt
0,0,0,0,0,27,26,28,0,0,0,11,21,0,0,15,0,0,26,12,0,0,15,18,0,0,27,21,30,0,0,21,0,0,0,0,26,0,18,15,10,8,10,0,0,0,1480.txt
1,5,14,1,5,4,17,6,21,16,22,1,15,17,8,1,29,20,8,22,7,16,23,3,18,3,9,3,14,3,6,26,9,7,7,1,8,1,11,1,4,4,4,17,28,30,1482.txt
0,0,0,0,0,27,26,20,0,0,0,11,18,24,20,15,9,25,26,12,15,12,10,27,7,7,0,0,0,0,0,4,0,4,0,0,26,0,18,15,10,8,14,0,0,0,1484.txt
0,0,0,0,0,27,26,28,0,0,0,11,21,0,26,15,19,0,26,12,0,0,15,27,0,9,0,0,0,6,12,21,8,0,0,11,23,15,21,12,10,8,14,0,0,0,1487.txt
0,0,0,0,0,27,26,20,0,0,0,11,18,24,20,15,9,0,26,12,0,0,10,18,7,7,27,21,30,0,0,21,0,0,5,0,26,0,18,15,10,8,17,4,2,0,1490.txt
0,0,0,0,0,27,26,20,0,0,0,11,18,24,20,15,9,25,26,12,15,12,15,27,0,7,0,0,0,0,0,4,0,4,0,0,26,0,18,15,10,8,14,0,0,0,1491.txt
1,5,14,11,24,19,12,6,21,16,18,30,4,20,8,13,24,20,4,4,26,21,5,4,28,20,21,14,19,17,28,26,15,7,29,7,30,17,8,21,4,4,4,27,28,22,1494.txt
1,8,22,1,16,9,1,7,18,4,22,1,15,17,6,1,29,9,21,24,7,28,23,30,10,12,19,10,18,12,8,27,14,26,22,26,15,30,17,19,17,20,30,17,24,18,1497.txt
0,0,0,0,0,27,26,20,0,0,0,11,18,24,20,15,9,25,26,12,15,12,15,27,0,7,0,0,0,0,0,4,0,4,0,0,26,0,18,15,10,8,14,0,0,0,1499.txt
0,0,0,0,0,27,26,20,0,0,0,11,18,24,20,15,9,25,26,12,15,12,15,27,0,7,0,0,0,6,0,4,8,4,0,11,23,15,21,12,10,8,19,0,0,8,1502.txt
0,0,0,0,0,27,26,20,0,0,0,11,18,24,20,15,9,0,26,12,0,0,15,18,0,7,27,21,30,0,0,21,0,0,0,0,26,0,18,15,10,8,10,0,0,0,1504.txt
1,0,14,1,5,4,17,6,21,16,22,1,15,17,8,15,29,25,21,24,7,22,23,30,14,7,19,17,18,19,28,4,21,4,22,7,13,26,17,25,10,8,10,14,16,22,1505.txt
0,0,0,0,0,27,26,20,0,0,0,11,18,24,20,15,9,25,26,12,15,12,15,27,0,7,0,0,0,6,12,4,8,4,0,11,23,15,21,12,10,8,19,0,0,10,1507.txt
0,0,14,1,24,4,1,7,18,3,22,1,15,17,11,15,29,25,8,23,15,12,23,14,18,7,9,3,22,3,8,4,18,4,22,19,8,27,11,19,10,8,22,17,16,17,1509.txt
0,0,0,0,0,27,26,20,0,0,0,11,18,24,20,15,9,25,26,12,15,12,15,27,0,7,0,0,0,0,0,4,0,4,30,0,26,0,18,15,10,8,14,2,16,29,1511.txt
0,0,0,0,0,27,26,20,0,0,0,11,18,24,20,15,9,25,26,12,15,12,15,22,7,7,27,21,30,0,0,4,0,4,0,0,26,0,18,15,10,8,10,0,0,0,1513.txt
0,0,0,0,0,27,26,20,0,0,0,11,18,24,20,15,9,25,26,12,15,12,15,18,0,7,27,21,30,0,0,4,0,4,0,0,26,0,18,15,10,8,10,0,0,0,1515.txt
0,0,0,0,0,27,26,28,0,0,0,11,21,0,0,15,0,23,8,11,0,0,22,10,21,0,0,0,0,0,0,6,0,18,22,0,26,0,18,15,10,8,14,12,28,17,1518.txt
0,0,5,0,0,27,26,20,0,0,0,11,18,24,20,15,9,25,26,12,15,12,11,22,0,7,27,21,30,0,0,4,0,4,0,0,26,0,18,15,10,8,10,0,0,0,1519.txt
0,0,0,0,0,27,26,20,0,0,0,11,18,24,20,15,9,25,26,12,15,12,15,27,0,7,0,0,0,0,0,4,0,4,6,0,26,0,18,15,10,8,14,17,28,26,1521.txt
0,0,0,0,0,27,26,20,11,10,26,11,2,14,2,15,23,25,26,18,27,11,12,27,7,7,0,0,0,0,0,20,0,24,9,15,21,13,22,13,22,22,14,6,6,0,1523.txt
0,0,0,0,0,27,26,20,0,0,0,11,18,24,20,15,9,25,26,12,15,12,15,27,0,7,0,0,0,0,0,4,0,4,0,0,26,0,18,15,10,8,14,0,0,0,1526.txt
0,0,5,0,0,27,0,20,0,0,0,0,18,24,20,27,9,25,27,12,15,12,15,18,0,7,27,21,30,0,0,4,0,4,0,0,26,0,18,15,11,13,2,0,0,0,1528.txt
1,5,14,1,13,3,17,6,21,16,22,1,15,17,8,1,29,20,8,27,7,21,23,10,10,3,24,11,18,19,28,26,21,7,10,26,16,24,11,30,4,4,4,3,16,17,1529.txt
0,0,0,0,0,27,26,28,20,2,14,11,2,28,18,15,2,23,26,18,29,2,12,27,7,0,0,0,0,0,23,2,30,24,6,2,2,2,22,2,22,22,14,13,28,26,1532.txt
0,0,0,0,0,27,26,20,0,0,0,11,18,24,20,15,9,25,26,12,15,12,10,18,7,7,27,21,30,6,0,4,5,4,0,9,10,9,14,6,10,8,10,0,0,0,1534.txt
1,5,14,16,13,3,17,6,21,16,17,30,13,20,8,4,15,20,8,11,20,22,20,13,11,3,9,17,18,19,28,26,23,7,22,6,1,18,17,19,4,4,4,3,24,30,1536.txt
30,22,5,29,2,15,2,17,5,9,2,25,10,14,16,14,22,16,2,18,10,14,2,24,5,16,16,6,9,2,16,2,17,24,8,2,2,2,24,2,22,22,17,5,5,12,1538.txt
0,0,0,0,0,27,26,20,0,0,0,11,18,24,20,15,9,25,26,12,15,12,15,27,0,7,0,0,0,0,0,4,0,4,0,0,26,0,18,15,10,8,14,0,0,0,1540.txt
0,0,0,0,0,27,26,20,0,0,0,11,18,24,20,15,9,25,8,3,15,12,23,14,18,7,0,0,0,0,0,4,0,4,1,0,26,0,18,15,10,8,14,17,28,24,1543.txt
0,0,0,0,0,27,26,20,0,0,0,11,18,24,20,15,9,25,26,12,15,12,15,27,0,7,0,0,0,0,0,4,0,4,0,0,26,0,18,15,10,8,14,0,0,0,1545.txt
1,8,22,11,5,4,1,7,18,12,17,7,13,6,6,9,29,28,8,27,3,15,23,14,10,12,23,12,18,21,8,30,26,26,14,23,11,30,11,25,29,30,7,13,28,26,1546.txt
0,0,0,0,0,27,26,20,0,0,0,11,18,24,20,15,9,25,26,12,15,12,15,27,0,7,0,0,0,0,0,4,0,4,30,0,26,0,18,15,10,8,14,2,16,29,1548.txt
0,0,0,0,0,27,26,20,0,0,0,11,18,24,20,15,9,25,26,12,15,12,15,27,0,7,0,0,0,0,0,4,0,4,0,0,26,0,18,15,10,8,14,0,0,0,1551.txt
0,0,0,0,0,27,26,28,0,0,0,11,21,0,0,15,0,0,26,12,0,0,2,22,2,0,28,19,28,0,0,21,0,0,0,0,26,0,18,15,10,8,9,0,0,0,1552.txt
0,0,0,0,0,27,26,20,0,0,0,11,18,24,20,15,9,25,26,12,15,12,15,22,7,7,27,21,30,0,0,4,0,4,0,0,26,0,18,15,10,8,10,0,0,0,1556.txt
0,0,0,0,0,27,0,28,0,0,0,0,21,0,0,6,0,0,27,12,0,0,15,27,0,0,0,0,0,0,0,21,0,0,0,0,26,0,18,15,12,25,19,0,0,0,1558.txt
0,0,0,0,0,27,26,20,0,0,0,11,18,24,20,15,9,25,26,12,15,12,15,27,0,7,0,0,0,6,12,4,8,4,0,11,23,15,21,12,10,8,14,0,0,9,1561.txt
0,0,0,0,0,27,26,20,0,0,0,11,18,24,20,15,9,25,26,12,15,12,15,27,0,7,0,0,0,0,0,4,0,4,0,0,26,0,18,15,10,8,14,0,0,0,1563.txt
0,0,0,0,0,27,0,28,0,0,0,0,21,0,0,6,0,0,0,12,0,0,2,22,0,0,27,21,30,0,0,21,0,0,0,0,26,0,18,15,11,25,17,0,0,0,1565.txt
0,0,0,0,0,27,0,20,0,0,0,0,18,24,20,29,9,25,8,25,15,12,21,12,10,7,27,21,30,0,0,4,0,4,21,0,26,0,18,15,12,13,10,20,19,17,1567.txt
0,0,0,0,0,27,26,20,0,0,0,11,18,24,20,15,9,25,26,12,15,12,0,27,0,7,0,0,0,0,0,4,0,4,0,0,26,0,18,15,10,8,14,0,0,0,1570.txt
0,0,0,0,0,27,26,20,0,0,0,11,18,24,20,15,9,25,26,12,15,12,15,27,0,7,0,0,0,0,0,4,0,4,0,0,26,0,18,15,10,8,14,0,0,0,1572.txt
0,0,0,0,0,27,26,20,0,0,0,11,18,24,20,15,9,21,26,12,15,12,15,22,0,7,27,21,30,0,0,4,0,4,0,0,26,0,18,15,10,8,11,0,0,0,1574.txt
0,0,0,0,0,27,26,20,0,0,0,11,18,24,20,15,9,25,26,12,15,12,15,27,0,7,0,0,0,0,0,4,0,4,0,0,26,0,18,15,10,8,14,0,0,0,1581.txt
0,0,0,0,0,27,0,28,0,0,0,0,21,0,0,6,0,0,8,21,0,0,9,14,18,0,27,21,30,0,0,21,0,0,0,0,26,0,18,15,12,25,22,0,0,0,1583.txt
30,21,0,29,2,17,19,12,0,0,0,26,18,24,20,14,9,16,18,12,15,12,10,18,7,16,2,6,9,2,14,4,17,4,25,30,29,28,25,27,22,22,2,15,16,28,1585.txt
1,17,17,1,8,30,4,6,21,6,1,1,1,29,7,3,4,8,1,1,15,12,21,1,11,7,13,9,1,14,3,27,6,26,6,3,3,3,3,3,13,15,24,10,28,26,1587.txt
0,0,0,0,0,27,26,20,0,0,0,11,18,24,20,15,9,25,26,12,15,12,15,27,0,7,0,0,0,0,0,4,0,4,0,0,26,0,18,15,10,8,14,0,0,0,1589.txt
0,0,0,0,0,27,0,28,0,0,0,0,21,0,0,27,0,0,12,27,19,7,3,17,29,0,27,21,30,0,0,21,0,0,0,0,26,0,18,15,11,12,10,0,0,0,1590.txt
0,0,0,0,0,27,26,20,0,0,0,11,18,24,20,15,9,23,26,12,0,0,15,27,0,7,0,0,0,0,0,6,0,6,6,0,26,0,18,15,10,8,14,12,28,26,1594.txt
0,0,0,0,0,27,26,20,0,0,0,11,18,24,20,15,9,25,8,5,15,12,22,14,10,7,0,0,0,0,0,4,0,4,0,0,26,0,18,15,10,8,19,0,0,0,1596.txt
0,0,0,0,0,27,26,20,0,0,0,11,18,24,20,15,9,25,26,12,15,12,15,27,0,7,0,0,0,0,0,4,0,4,2,0,26,0,18,15,10,8,14,12,28,15,1598.txt
0,0,0,0,0,27,26,20,0,0,0,11,18,24,20,15,9,25,26,12,15,12,10,27,7,7,0,0,0,0,0,4,0,4,22,0,26,0,18,15,10,8,14,2,16,18,1600.txt
0,0,0,0,0,27,26,20,0,0,0,11,18,24,20,15,9,25,26,12,15,12,2,22,0,7,27,21,30,0,0,4,0,4,30,0,26,0,18,15,10,8,17,2,16,27,1602.txt
0,0,0,0,0,27,26,20,0,0,0,11,18,24,20,15,9,25,26,12,15,12,15,27,0,7,0,0,0,6,0,4,5,4,7,9,10,9,14,6,10,8,19,2,16,22,1604.txt
0,0,0,0,0,27,26,20,0,0,0,11,18,24,20,15,9,25,26,12,15,12,15,22,7,7,27,21,30,0,0,4,0,4,0,0,26,0,18,15,10,8,10,0,0,0,1605.txt
0,0,0,0,0,27,26,20,0,0,0,11,18,24,20,15,9,25,26,12,15,12,10,27,0,7,0,0,0,6,0,4,5,4,30,3,3,3,3,3,10,8,14,2,16,28,1608.txt
0,0,0,0,0,27,26,20,0,0,0,11,18,24,20,15,9,25,26,12,15,12,15,27,0,7,0,0,0,0,0,4,0,4,6,0,26,0,18,15,10,8,14,12,28,29,1610.txt
0,0,0,0,0,27,26,20,0,0,0,11,18,24,20,15,9,25,26,12,15,12,2,27,7,7,0,0,0,0,27,4,2,4,5,0,26,0,18,15,23,22,14,4,2,0,1612.txt
0,0,0,0,0,27,26,20,0,0,0,11,18,24,20,15,9,25,3,21,15,12,22,14,11,7,0,0,0,0,0,4,0,4,0,0,26,0,18,15,10,8,14,0,0,0,1615.txt
0,0,0,0,0,27,0,28,0,0,0,0,21,0,0,6,0,0,28,12,0,0,15,22,0,0,27,21,30,0,0,21,0,0,0,0,26,0,18,15,11,25,2,0,0,0,1616.txt
0,0,0,0,0,27,26,28,0,0,0,11,21,0,0,15,0,23,26,12,0,0,2,22,5,0,27,21,30,0,13,21,25,0,3,0,26,0,18,15,10,8,17,12,28,30,1618.txt
0,0,0,0,0,27,26,20,0,0,0,11,18,24,20,15,9,25,23,11,15,12,21,5,21,7,0,0,0,0,0,4,0,4,21,0,26,0,18,15,10,8,14,2,16,19,1622.txt
0,0,0,0,0,27,26,20,0,0,0,11,18,24,20,15,9,25,26,12,15,12,15,27,0,7,0,0,0,0,0,4,0,4,0,0,26,0,18,15,10,8,14,0,0,0,1623.txt
0,0,0,0,0,27,26,20,0,0,0,11,18,24,20,15,9,25,26,12,15,12,15,27,0,7,0,0,0,0,0,4,0,4,0,0,26,0,18,15,10,8,14,0,0,0,1626.txt
0,0,0,0,0,27,26,20,0,0,0,11,18,24,20,15,9,25,26,0,15,12,15,27,0,7,0,0,0,0,0,4,0,4,0,0,26,0,18,15,10,8,14,0,0,0,1629.txt
0,0,0,0,0,27,26,20,0,0,0,11,18,24,20,15,9,23,26,12,0,0,2,27,2,7,0,0,0,0,0,21,0,0,5,0,26,0,18,15,10,8,14,4,2,0,1631.txt
0,0,0,0,0,27,26,20,0,0,0,11,18,24,20,15,9,25,26,12,15,12,10,27,0,7,0,0,0,0,0,4,0,4,0,0,26,0,18,15,10,8,14,0,0,0,1632.txt
0,0,5,0,0,27,26,20,0,0,0,11,18,24,20,15,9,25,26,12,15,12,2,22,7,7,27,21,30,0,0,4,0,4,0,0,26,0,18,15,10,8,17,0,0,0,1637.txt
0,0,0,0,0,27,26,20,0,0,0,11,18,24,20,15,9,25,26,12,15,12,2,22,12,7,27,21,30,0,0,4,0,4,6,0,26,0,18,15,10,8,11,2,16,26,1639.txt
1,17,17,1,13,3,17,6,21,15,22,1,15,17,6,1,29,28,8,27,19,7,20,14,29,12,9,30,5,29,8,8,13,10,23,26,13,26,12,25,17,20,7,17,28,18,1641.txt
1,0,17,1,8,9,17,6,21,6,22,1,15,17,3,15,4,25,8,21,19,7,20,14,11,7,9,28,3,30,11,4,10,4,7,0,26,0,18,15,10,8,14,2,16,24,1643.txt
0,0,0,0,0,27,26,20,0,0,0,11,18,24,20,15,9,25,26,12,15,12,15,27,0,7,0,0,0,0,0,4,0,4,0,0,26,0,18,15,10,8,14,0,0,0,1645.txt
0,0,0,0,0,27,26,20,0,0,0,11,18,24,20,15,9,25,26,12,15,12,15,27,0,7,0,0,0,0,0,4,0,4,0,0,26,0,18,15,10,8,14,0,0,0,1647.txt
0,0,0,0,0,27,26,20,0,0,0,11,18,24,20,15,9,25,26,12,15,12,15,27,0,7,0,0,0,0,0,4,0,4,0,0,26,0,18,15,10,8,14,0,0,0,1650.txt
0,0,0,0,0,27,0,28,0,0,0,0,21,0,0,6,0,0,28,12,0,0,15,22,0,0,27,21,30,0,0,21,0,0,0,0,26,0,18,15,12,25,17,0,0,0,1652.txt
0,0,0,0,0,27,26,0,0,0,0,11,21,0,0,15,0,0,26,0,0,0,15,27,0,0,0,0,0,0,0,0,0,0,0,0,26,0,18,15,10,8,19,0,0,0,1654.txt
0,0,0,0,0,27,26,20,0,0,0,11,18,24,20,15,9,0,26,12,0,0,2,27,12,7,0,0,0,0,0,21,0,0,0,0,26,0,18,15,10,8,14,0,0,0,1655.txt
0,0,0,0,0,27,26,20,0,0,0,11,18,24,20,15,9,25,26,12,15,12,15,27,0,7,0,0,0,0,0,4,0,4,6,0,26,0,18,15,10,8,14,2,16,24,1657.txt
0,0,0,0,0,27,26,20,0,0,0,11,18,24,20,15,9,25,26,12,15,12,15,27,0,7,0,0,0,0,0,4,0,4,0,0,26,0,18,15,10,8,14,0,0,0,1660.txt
0,0,5,0,0,27,26,20,0,0,0,11,18,24,20,15,9,25,26,12,15,12,10,18,7,7,27,21,30,0,0,4,0,4,3,0,26,0,18,15,10,8,10,20,28,19,1662.txt
0,0,0,0,0,27,26,20,0,0,0,11,18,24,20,15,9,25,26,12,15,12,15,27,0,7,0,0,0,0,0,4,0,4,0,0,26,0,18,15,10,8,14,0,0,0,1663.txt
0,0,0,0,0,27,0,28,0,0,0,0,21,0,0,6,0,0,28,12,0,0,2,2,12,0,27,21,30,0,0,21,0,0,5,0,26,0,18,15,11,13,16,4,2,0,1666.txt
30,21,0,29,2,17,19,12,11,10,26,2,2,14,2,5,23,7,18,2,13,19,10,27,7,29,15,23,8,25,15,20,30,24,2,30,29,28,25,27,22,22,14,15,9,15,1667.txt
0,0,0,0,0,27,26,20,0,0,0,11,18,24,20,15,9,25,26,12,15,12,15,27,0,7,0,0,0,0,0,4,0,4,2,0,26,0,18,15,10,8,14,2,16,15,1669.txt
0,0,0,0,0,27,26,28,0,0,0,11,21,0,0,15,0,0,26,12,0,0,15,27,0,0,0,0,0,0,0,21,0,0,0,0,26,0,18,15,10,8,14,0,0,0,1671.txt
0,0,0,0,0,27,26,20,0,0,0,11,18,24,20,15,9,25,8,3,15,12,23,14,18,7,0,0,0,0,0,4,0,4,1,0,26,0,18,15,10,8,14,10,19,24,1673.txt
0,0,0,0,0,27,26,20,0,0,0,11,18,24,20,15,9,0,26,12,0,0,15,27,0,7,0,0,0,0,0,21,0,0,0,0,26,0,18,15,10,8,14,0,0,0,1676.txt
0,0,0,0,0,27,26,20,0,0,0,11,18,24,20,15,9,25,26,12,15,12,10,27,7,7,0,0,0,0,0,4,0,4,2,0,26,0,18,15,2,14,14,12,28,15,1677.txt
0,0,0,0,0,27,26,20,0,0,0,11,18,24,20,15,9,25,26,12,15,12,15,28,0,7,0,0,0,0,0,4,0,4,30,0,26,0,18,15,10,8,14,2,16,27,1680.txt
1,17,17,1,24,4,17,6,21,4,22,1,15,17,6,3,13,8,21,24,23,28,20,30,30,12,13,12,21,14,19,19,21,14,22,7,14,24,17,21,13,15,24,17,17,22,1682.txt
1,17,17,1,13,30,17,6,21,7,22,1,15,17,9,1,3,4,8,11,0,30,23,29,18,12,6,9,14,8,28,8,21,10,6,3,3,3,3,3,17,20,7,10,28,26,1684.txt
0,0,0,0,0,27,26,20,0,0,0,11,18,24,20,15,9,25,26,12,15,12,15,27,0,7,0,0,0,0,0,4,0,4,0,0,26,0,18,15,10,8,14,0,0,0,1686.txt
0,0,0,0,0,27,26,20,0,0,0,11,18,24,20,15,9,25,26,12,15,12,15,27,0,7,0,0,0,6,0,4,8,4,0,11,4,15,21,4,10,8,14,0,0,0,1692.txt
0,0,0,0,0,27,26,20,0,0,0,11,18,24,20,15,9,25,8,3,15,12,23,14,18,7,0,0,0,6,12,4,8,4,1,1,1,1,11,1,10,8,14,17,28,30,1694.txt
0,0,0,0,0,27,26,20,0,0,0,11,18,24,20,15,9,0,26,12,15,12,15,27,0,7,0,0,0,0,0,4,0,4,0,0,26,0,18,15,10,8,19,0,0,0,1696.txt
0,0,0,0,0,27,26,20,0,0,0,11,18,24,20,15,9,25,26,12,15,12,15,27,0,7,0,0,0,0,0,4,0,4,7,0,26,0,18,15,10,8,14,2,16,30,1698.txt
0,0,0,0,0,27,26,20,0,0,0,11,18,24,20,15,9,25,26,12,15,12,15,28,0,7,0,0,0,0,0,4,0,4,2,0,26,0,18,15,10,8,14,2,16,15,1699.txt
0,0,0,0,0,27,26,20,0,0,0,11,18,24,20,15,9,25,1,1,15,12,21,1,11,7,0,0,0,0,0,4,0,4,0,0,26,0,18,15,10,8,14,0,0,0,1701.txt
0,0,0,0,0,27,26,20,0,0,0,11,18,24,20,15,9,25,26,12,15,12,15,27,0,7,0,0,0,0,0,4,0,4,26,30,29,28,25,27,10,8,14,2,16,29,1705.txt
0,0,17,1,1,1,17,6,8,1,22,1,15,17,3,0,4,26,8,3,19,7,21,14,11,19,3,30,3,29,28,28,20,28,1,18,1,16,7,18,30,29,14,10,28,24,1707.txt
0,0,0,0,0,27,26,20,0,0,0,11,18,24,20,15,9,25,26,12,15,12,15,27,0,7,0,0,0,0,0,4,0,4,0,0,26,0,18,15,10,8,19,0,0,0,1709.txt
0,0,0,0,0,27,26,20,0,0,0,11,18,24,20,15,9,25,26,12,15,12,15,27,0,7,0,0,0,0,0,4,0,4,10,0,26,0,18,15,10,8,14,2,16,24,1715.txt
0,0,0,0,0,27,26,20,0,0,0,11,18,24,20,15,9,23,26,12,0,0,15,27,12,7,0,0,0,6,0,24,5,20,6,9,23,9,14,6,10,8,14,17,28,27,1717.txt
0,0,0,0,0,27,26,20,0,0,0,11,18,24,20,15,9,25,8,21,15,12,14,14,17,7,0,0,0,6,0,4,8,4,0,11,23,15,21,12,10,8,0,0,0,10,1720.txt
0,0,0,0,0,27,26,28,0,0,0,11,21,0,0,15,0,0,26,12,0,0,15,27,0,0,0,0,0,0,0,21,0,0,0,0,26,0,18,15,10,8,19,0,0,0,1723.txt
0,0,0,0,0,27,26,28,0,0,0,11,21,0,0,15,0,0,26,12,0,0,15,27,0,0,0,0,0,0,0,21,0,0,0,0,26,0,18,15,10,8,19,0,0,0,1725.txt
0,0,0,0,0,27,26,28,0,0,0,11,23,0,28,15,26,23,26,12,0,30,15,27,0,0,0,0,0,0,0,6,0,20,22,23,8,22,11,11,10,8,19,12,28,24,1727.txt
0,0,0,0,0,27,26,20,0,0,0,11,18,24,20,15,9,25,26,12,15,12,15,18,0,7,27,21,30,0,0,4,0,4,0,0,26,0,18,15,10,8,11,0,0,0,1728.txt
0,0,0,0,0,27,26,20,0,0,0,11,18,24,20,15,9,0,26,12,0,0,15,27,0,7,0,0,0,6,0,21,8,0,0,11,23,15,21,4,10,8,14,0,0,0,1732.txt
0,0,0,0,0,27,26,20,0,0,0,11,18,24,20,15,9,25,26,12,15,12,15,27,0,7,0,0,0,0,0,4,0,4,0,0,26,0,18,15,10,8,14,0,0,0,1734.txt
0,0,0,0,0,27,26,20,0,0,0,11,18,24,20,15,9,25,26,12,15,12,15,28,22,7,0,0,0,0,0,4,0,4,6,0,26,0,18,15,10,8,14,12,11,14,1735.txt
0,0,0,0,0,27,26,20,0,0,0,11,18,24,20,15,9,25,26,12,15,12,15,27,0,7,0,0,0,0,0,4,0,4,27,0,26,0,18,15,10,8,14,10,28,26,1737.txt
0,0,0,0,0,27,26,20,0,0,0,11,18,24,20,15,9,25,26,12,15,12,15,27,0,7,0,0,0,0,0,4,0,4,0,0,26,0,18,15,10,8,14,0,0,0,1739.txt
0,0,0,0,0,27,26,20,0,0,0,11,18,24,20,15,9,0,26,12,0,0,15,18,0,7,27,21,30,0,0,21,0,17,0,0,26,0,18,15,10,8,10,0,0,8,1744.txt
30,21,0,29,28,17,19,12,0,0,0,24,18,24,20,14,9,16,22,27,15,12,23,5,10,15,16,6,9,2,16,4,17,4,0,0,26,0,18,15,11,12,10,0,0,8,1745.txt
0,0,0,0,0,27,26,20,0,0,0,11,18,24,20,15,9,25,26,12,15,12,2,27,20,7,0,0,0,0,0,4,0,4,6,0,26,0,18,15,2,14,14,2,16,29,1747.txt
0,0,0,0,0,27,26,20,0,0,0,11,18,24,20,15,9,25,26,12,15,12,15,22,0,7,25,19,28,0,0,4,0,4,6,0,26,0,18,15,10,8,9,2,16,29,1749.txt
0,0,0,0,0,27,0,20,0,0,0,0,18,24,20,27,9,25,27,12,15,12,10,18,7,7,27,21,30,6,0,4,5,4,9,9,10,9,14,6,20,23,10,6,6,0,1751.txt
30,21,5,29,2,17,19,12,5,9,26,25,16,14,16,14,22,16,18,18,11,14,11,24,5,2,16,6,9,2,16,13,17,5,5,15,21,2,24,13,22,22,17,4,2,0,1755.txt
0,0,0,0,0,27,26,28,0,0,0,11,21,0,0,15,0,0,26,12,0,0,15,18,0,0,27,21,30,0,0,21,0,0,0,0,26,0,18,15,10,8,18,0,0,0,1759.txt
0,0,0,0,0,27,26,20,0,0,0,11,18,24,20,15,9,25,26,12,15,12,15,27,0,7,0,0,0,0,0,4,0,4,0,0,26,0,18,15,10,8,14,0,0,0,1762.txt
1,17,22,1,5,4,1,7,16,12,22,1,15,17,6,1,29,9,16,23,7,1,23,16,18,28,24,28,26,30,8,19,18,22,22,22,8,7,11,7,26,21,30,17,28,1,1764.txt
30,30,5,29,2,15,2,2,2,2,2,2,16,27,16,18,2,17,30,2,29,2,2,26,2,25,2,25,8,20,2,2,2,27,5,2,2,2,2,2,23,22,9,4,2,0,1765.txt
1,5,14,16,16,9,1,7,16,20,17,30,13,20,13,3,15,28,4,4,22,22,20,4,30,27,9,3,21,3,8,18,23,15,22,7,15,21,8,19,17,20,7,21,17,17,1769.txt
0,0,0,0,0,27,26,20,0,0,0,11,18,24,20,15,9,25,26,12,15,12,15,27,0,7,0,0,0,0,0,4,0,4,0,0,26,0,18,15,10,8,14,0,0,0,1771.txt
0,0,0,0,0,27,26,28,0,0,0,11,21,0,0,15,0,0,26,12,0,0,15,27,0,0,0,0,0,0,0,21,0,0,0,0,26,0,18,15,10,8,14,0,0,0,1774.txt
0,0,0,0,0,27,26,20,0,0,0,11,18,24,20,15,9,0,26,12,0,0,15,18,0,7,27,21,30,0,0,21,0,0,0,0,26,0,18,15,10,8,10,0,0,0,1775.txt
0,0,0,0,0,27,26,20,0,0,0,11,18,24,20,15,9,25,8,27,15,12,23,14,29,7,0,0,0,0,0,4,0,4,0,0,26,0,18,15,10,8,14,0,0,0,1778.txt
0,0,0,0,0,27,26,20,0,0,0,11,18,24,20,15,9,25,26,12,15,12,15,24,0,7,28,19,28,0,0,4,0,4,6,0,26,0,18,15,10,8,9,2,16,29,1780.txt
0,0,0,0,0,27,26,20,0,0,0,11,18,24,20,15,9,25,26,12,15,12,15,27,0,7,0,0,0,0,0,4,0,4,0,0,26,0,18,15,10,8,14,0,0,0,1783.txt
0,0,0,0,0,27,26,20,0,0,0,11,18,24,20,15,9,25,8,11,15,12,23,14,18,7,0,0,0,0,0,4,0,4,2,0,26,0,18,15,10,8,14,12,28,15,1784.txt
0,0,0,0,0,27,26,20,0,0,0,11,18,24,20,15,9,25,26,12,15,12,15,27,0,7,0,0,0,0,0,4,0,4,0,0,26,0,18,15,10,8,14,0,0,0,1787.txt
0,0,0,0,0,27,26,20,0,0,0,11,18,24,20,15,9,25,26,12,15,12,15,27,0,7,6,7,18,8,17,4,21,4,30,3,3,3,3,3,10,8,14,2,16,15,1789.txt
0,0,0,0,0,27,26,20,0,0,0,11,18,24,20,15,9,25,26,12,15,12,15,27,0,7,0,0,0,0,0,4,0,4,0,0,26,0,18,15,10,8,14,0,0,0,1791.txt
0,0,0,0,0,27,26,20,0,0,0,11,18,24,20,15,9,25,26,12,15,12,15,22,0,7,27,21,30,0,0,4,0,4,0,0,26,0,18,15,10,8,16,0,0,0,1794.txt
0,0,0,0,0,27,26,20,0,0,0,11,18,24,20,15,9,23,26,12,15,12,2,27,0,7,0,0,0,0,0,4,0,4,0,0,26,0,18,15,10,8,14,0,0,0,1798.txt
30,21,5,29,28,17,19,12,0,0,0,24,18,24,20,14,9,16,8,11,15,12,22,11,30,18,9,17,21,19,9,4,21,4,12,21,8,19,17,19,20,23,17,17,16,22,1800.txt
0,0,0,0,0,27,0,28,0,0,0,0,21,0,0,6,0,0,0,0,0,0,15,2,0,0,25,19,28,0,0,21,0,0,0,0,26,0,18,15,12,25,9,0,0,0,1801.txt
0,0,0,0,0,27,26,20,0,0,0,11,18,24,20,15,9,25,26,12,15,12,15,27,0,7,0,0,0,0,0,4,0,4,2,0,26,0,18,15,10,8,14,12,28,24,1803.txt
0,0,5,0,0,27,26,28,0,0,0,11,21,0,0,0,0,0,26,0,0,0,2,22,0,0,27,21,30,0,0,21,0,0,0,0,26,0,18,15,10,8,17,0,0,0,1805.txt
0,0,0,0,0,27,26,20,0,0,0,11,18,24,20,15,9,0,8,11,0,0,23,12,29,7,27,21,30,0,0,21,0,0,0,0,26,0,18,15,10,8,18,0,0,0,1808.txt
0,0,0,0,0,27,26,20,0,0,0,11,18,24,20,0,9,25,9,0,3,3,15,28,0,19,0,0,0,0,0,4,0,4,27,0,0,0,0,0,10,8,5,23,3,14,1810.txt
0,0,0,0,0,27,26,20,0,0,0,11,18,24,20,15,9,25,26,12,15,12,15,27,5,7,0,0,0,0,0,4,0,4,0,0,26,0,18,15,10,8,14,0,0,0,1812.txt
0,0,0,0,0,27,0,28,0,0,0,0,21,0,0,30,0,23,8,21,19,7,22,29,18,0,9,30,3,29,26,23,20,20,3,0,26,0,18,15,11,25,2,17,19,24,1814.txt
0,0,0,0,0,27,26,20,0,0,0,11,18,24,20,15,9,0,26,12,0,0,16,27,0,7,0,0,0,6,12,21,8,17,0,11,23,15,21,4,10,8,13,0,0,9,1816.txt
1,5,14,16,13,3,17,6,21,16,6,4,5,4,8,8,29,20,8,11,16,23,23,12,10,13,14,11,26,19,28,26,19,7,22,22,15,18,10,24,4,4,4,30,24,18,1818.txt
0,0,0,0,0,27,26,20,0,0,0,11,18,24,20,15,9,23,26,12,0,0,15,27,0,7,0,0,0,0,0,6,0,20,6,0,26,0,18,15,10,8,14,13,28,29,1820.txt
0,0,0,0,0,27,26,20,0,0,0,11,18,24,20,15,9,25,26,12,15,12,15,27,0,7,0,0,0,0,0,4,0,4,0,0,26,0,18,15,10,8,14,0,0,0,1824.txt
0,0,0,0,0,27,26,20,0,0,0,11,18,24,20,15,9,25,26,12,15,12,15,27,0,7,0,0,0,0,0,4,0,4,0,0,26,0,18,15,10,8,14,0,0,0,1825.txt
0,0,0,0,0,27,26,20,0,0,0,11,18,24,20,15,9,25,26,12,15,12,15,22,0,7,28,19,28,0,0,4,0,4,30,0,26,0,18,15,10,8,11,2,16,27,1827.txt
1,5,14,20,24,4,3,9,6,16,3,3,3,3,8,14,13,16,4,4,11,14,21,4,21,18,19,11,22,19,20,10,21,24,12,7,13,26,8,21,4,4,4,14,16,17,1830.txt
0,0,0,0,0,27,26,20,0,0,0,11,18,24,20,15,9,23,8,11,30,24,22,12,21,7,6,7,23,8,11,4,11,4,2,0,26,0,18,15,10,8,18,20,28,15,1831.txt
0,0,0,0,0,27,26,20,0,0,0,11,18,24,20,15,9,25,26,12,15,12,15,27,0,7,0,0,0,0,0,4,0,4,0,0,26,0,18,15,10,8,14,0,0,0,1833.txt
0,0,5,0,0,27,26,20,2,2,26,11,10,14,17,15,2,25,26,18,10,14,2,22,2,7,28,19,28,0,13,7,25,5,5,16,21,12,16,13,23,22,2,4,2,0,1836.txt
0,0,0,0,0,27,26,28,0,0,0,11,21,0,0,15,0,0,26,12,0,0,15,27,0,0,0,0,0,0,0,21,0,0,0,0,26,0,18,15,10,8,14,0,0,0,1838.txt
1,17,22,1,5,19,1,7,16,12,22,1,15,17,6,1,5,10,11,13,30,21,5,20,28,22,21,14,18,17,26,19,14,22,28,22,8,22,13,29,24,21,29,28,15,17,1840.txt
0,0,0,0,0,27,26,20,0,0,0,11,18,24,20,15,9,25,11,7,15,12,28,6,28,7,6,18,18,8,28,4,21,4,3,17,8,24,11,30,10,8,15,10,28,30,1842.txt
0,0,0,0,0,27,26,28,0,0,0,11,21,0,0,15,0,0,26,12,0,0,15,27,0,0,0,0,0,0,0,21,0,0,0,0,26,0,18,15,10,8,14,0,0,0,1844.txt
0,0,0,0,0,27,0,28,0,0,0,0,21,0,0,6,0,0,27,12,0,0,15,27,0,0,0,0,0,0,0,21,0,0,0,0,26,0,18,15,11,12,14,0,0,0,1847.txt
0,0,0,0,0,27,26,20,0,0,0,11,18,24,20,15,9,25,26,12,15,12,15,27,0,7,0,0,0,0,0,4,0,4,0,0,26,0,18,15,10,8,14,0,0,0,1850.txt
0,0,0,0,0,27,26,20,0,0,0,11,18,24,20,15,9,25,26,12,15,12,15,27,0,7,0,0,0,6,12,4,8,4,0,11,23,15,21,12,10,8,14,0,0,9,1851.txt
1,0,17,1,13,30,17,6,8,16,22,1,15,17,13,15,24,25,11,7,15,12,5,20,28,7,6,7,23,8,18,4,27,4,2,3,3,3,3,3,10,8,14,2,16,15,1854.txt
30,21,0,27,26,17,19,12,29,8,26,2,2,2,16,5,21,7,17,2,11,14,2,27,12,29,2,6,9,2,27,2,17,24,5,15,21,2,2,13,20,23,14,4,2,0,1855.txt
0,0,0,0,0,27,26,20,0,0,0,11,18,24,20,15,9,25,26,12,15,12,15,27,0,7,0,0,0,0,0,4,0,4,0,0,26,0,18,15,10,8,14,0,0,0,1858.txt
0,0,0,0,0,27,26,20,0,0,0,11,18,24,20,15,9,25,26,12,15,12,15,27,0,7,0,0,0,6,0,4,5,4,0,9,23,9,14,12,10,8,14,0,0,0,1860.txt
0,0,0,0,0,27,26,0,4,8,26,11,8,2,2,15,21,23,26,2,2,11,2,24,12,0,6,9,20,8,6,2,6,27,6,3,3,3,3,3,2,14,9,10,1,29,1861.txt
0,0,0,0,0,27,26,28,0,0,0,11,24,0,29,15,27,22,26,12,0,30,15,22,0,0,6,9,1,8,3,6,9,6,27,29,25,28,25,26,10,8,9,13,11,26,1863.txt
0,0,0,0,0,27,26,20,0,0,0,11,18,24,20,15,9,25,26,12,15,12,2,27,12,7,0,0,0,0,0,4,0,4,5,0,26,0,18,15,22,2,14,4,2,0,1865.txt
0,0,0,0,0,27,26,20,0,0,0,11,18,24,20,15,9,0,26,12,0,0,15,27,0,7,0,0,0,0,0,21,0,0,0,0,26,0,18,15,10,8,14,0,0,0,1867.txt
1,17,17,1,5,4,17,6,8,12,22,1,15,17,3,1,29,28,8,21,7,7,23,11,29,12,18,29,7,30,28,18,13,15,22,26,8,27,12,25,26,21,7,17,28,24,1870.txt
0,0,0,0,0,27,26,20,0,0,0,11,18,24,20,15,9,25,26,12,15,12,15,27,0,7,0,0,0,0,0,4,0,4,0,0,26,0,18,15,10,8,14,0,0,0,1872.txt
1,17,13,15,16,30,4,6,21,11,7,7,6,6,7,3,15,4,26,12,15,12,2,27,12,27,8,7,15,10,3,30,6,26,14,5,5,5,5,5,14,16,7,21,17,15,1874.txt
0,0,0,0,0,27,26,28,0,0,0,11,21,0,0,15,0,23,26,12,0,0,15,27,0,0,0,0,0,0,0,6,0,18,21,0,26,0,18,15,10,8,14,10,28,24,1876.txt
30,21,5,29,28,17,19,12,11,2,9,24,16,7,15,5,2,7,17,18,11,14,10,18,7,29,16,25,8,23,21,10,25,24,9,15,21,12,16,13,22,22,10,6,6,7,1879.txt
0,0,0,0,0,27,26,20,0,0,0,11,18,24,20,15,9,25,26,12,15,12,15,27,12,7,0,0,0,6,0,4,5,4,0,9,10,9,14,6,10,8,14,0,0,0,1880.txt
0,0,0,0,0,27,26,0,0,0,0,11,21,0,0,15,0,23,26,12,0,0,15,27,0,0,0,0,0,0,0,0,0,0,27,0,26,0,18,15,10,8,14,17,28,29,1884.txt
0,0,0,0,0,27,26,20,5,9,9,11,10,7,15,15,22,25,26,18,11,14,10,18,7,7,27,21,30,6,30,20,5,24,9,15,21,12,16,13,20,23,10,6,6,0,1885.txt
0,0,0,0,0,27,26,20,0,0,0,11,18,24,20,15,9,0,22,21,12,7,23,17,18,7,0,0,0,0,0,21,0,0,0,0,26,0,18,15,10,8,19,0,0,0,1887.txt
0,0,0,0,0,27,26,20,0,0,0,11,18,24,20,15,9,25,26,12,15,12,15,27,0,7,0,0,0,7,0,4,8,4,0,11,23,15,21,12,10,8,14,0,0,0,1890.txt
0,0,0,0,0,27,26,28,0,0,0,11,21,0,0,15,0,0,26,12,0,0,15,22,7,0,27,21,30,0,0,21,0,0,0,0,26,0,18,15,10,8,10,0,0,0,1892.txt
1,0,14,1,24,12,17,6,21,7,22,1,15,17,9,15,29,22,8,11,20,24,21,14,18,0,6,9,16,8,26,23,11,20,2,21,24,27,11,25,10,8,10,20,28,26,1894.txt
0,0,5,0,0,27,26,20,0,0,0,11,18,24,20,15,9,25,26,12,15,12,10,18,7,7,27,21,30,0,0,4,0,4,9,0,26,0,18,15,10,8,10,6,6,0,1898.txt
1,1,1,16,3,3,1,1,1,17,18,30,13,20,8,26,12,15,4,4,15,12,21,4,14,23,23,12,18,21,9,25,23,13,6,5,5,5,5,5,27,1,20,30,24,26,1900.txt
0,0,0,0,0,27,26,20,0,0,0,11,18,24,20,15,9,0,26,12,15,12,2,22,19,7,25,22,28,0,0,4,0,4,5,0,26,0,18,15,10,8,17,4,2,0,1901.txt
0,0,0,0,0,27,26,20,0,0,0,11,18,24,20,15,9,25,8,7,15,12,14,10,17,7,0,0,0,0,0,4,0,4,0,0,26,0,18,15,10,8,14,0,0,0,1903.txt
0,0,0,0,0,27,26,20,0,0,0,11,18,24,20,15,9,25,26,12,15,12,15,27,0,7,0,0,0,0,0,4,0,4,0,0,26,0,18,15,10,8,14,0,0,0,1906.txt
30,21,0,29,28,15,2,2,12,10,26,24,16,14,2,18,23,17,30,17,29,11,2,24,12,17,2,23,8,15,23,13,30,27,6,3,3,3,3,3,22,22,22,17,28,26,1908.txt
0,0,0,0,0,27,26,20,0,0,0,11,18,24,20,15,9,25,26,12,15,12,15,27,0,7,0,0,0,0,0,4,0,4,0,0,26,0,18,15,10,8,14,0,0,0,1911.txt
1,5,14,16,13,9,12,6,21,14,18,30,4,20,6,16,24,20,4,4,26,1,5,4,27,20,21,14,18,17,28,26,14,7,28,7,30,7,8,7,4,4,4,3,23,1,1913.txt
0,0,0,0,0,27,26,20,0,0,0,11,18,24,20,15,9,25,26,12,15,12,15,27,0,7,0,0,0,0,0,4,0,4,6,0,26,0,18,15,10,8,14,2,16,24,1914.txt
1,17,22,11,3,9,1,7,16,15,18,8,28,9,6,3,15,8,23,15,18,1,7,16,10,12,17,30,25,29,17,18,11,15,19,17,17,7,11,7,13,15,24,12,27,1,1916.txt
1,17,17,1,8,30,17,6,21,6,22,1,15,17,7,3,4,4,3,11,15,12,21,14,11,26,6,12,20,8,6,8,9,10,6,23,1,16,11,18,17,20,7,25,16,26,1919.txt
1,17,17,1,5,4,17,6,21,12,22,1,15,17,6,1,29,4,26,12,0,30,15,27,0,12,9,28,1,30,3,8,11,10,22,23,24,16,11,19,17,20,7,12,28,30,1921.txt
0,0,0,0,0,27,26,20,0,0,0,11,18,24,20,15,9,25,26,12,15,12,15,27,7,7,0,0,0,0,0,4,0,4,2,0,26,0,18,15,10,8,14,12,28,15,1923.txt
0,0,0,0,0,27,26,20,0,0,0,11,18,24,20,15,9,25,26,12,15,12,15,24,5,7,27,21,30,0,0,4,0,4,0,0,26,0,18,15,10,8,11,0,0,0,1926.txt
0,0,0,0,0,27,26,20,0,0,0,11,18,24,20,15,9,25,26,12,15,12,10,27,0,7,0,0,0,0,0,4,0,4,0,0,26,0,18,15,10,8,14,0,0,0,1928.txt
0,0,0,0,0,27,26,20,0,0,0,11,18,24,20,15,9,0,26,12,0,0,15,18,0,7,27,21,30,0,0,21,0,0,0,0,26,0,18,15,10,8,10,0,0,0,1930.txt
0,0,0,0,0,27,26,20,0,0,0,11,18,24,20,15,9,25,26,12,15,12,15,18,0,7,28,22,28,0,0,4,0,4,6,3,3,3,3,3,10,8,10,1,28,26,1932.txt
0,0,0,0,0,27,26,20,0,0,0,11,18,24,20,15,9,25,26,12,15,12,11,27,12,7,0,0,0,0,15,4,2,4,5,0,26,0,18,15,10,8,14,4,2,0,1934.txt
0,0,0,0,0,27,26,20,0,0,0,11,18,24,20,15,9,25,26,12,15,12,15,27,0,7,0,0,0,0,0,4,0,4,0,0,26,0,18,15,10,8,14,0,0,0,1937.txt
0,0,0,0,0,27,26,20,0,0,0,11,18,24,20,15,9,25,26,12,15,12,15,27,0,7,0,0,0,0,0,4,0,4,0,0,26,0,18,15,10,8,14,0,0,10,1938.txt
0,0,0,0,0,27,26,20,0,0,0,11,18,24,20,15,9,25,26,12,15,12,15,27,0,7,0,0,0,0,0,4,0,4,0,0,26,0,18,15,10,8,14,0,0,0,1941.txt
0,0,0,0,0,27,26,28,0,0,0,11,21,0,0,15,0,0,26,12,0,0,15,22,0,0,25,22,28,0,0,21,0,0,0,0,26,0,18,15,10,8,22,0,0,0,1942.txt
0,0,0,0,0,27,26,28,0,0,0,11,21,0,0,15,0,0,26,12,0,0,15,27,0,0,0,0,0,0,0,21,0,0,0,0,26,0,18,15,10,8,14,0,0,0,1944.txt
0,0,0,0,0,27,26,20,29,8,9,11,16,7,15,15,21,25,26,2,25,19,15,18,7,7,27,21,30,0,0,2,0,27,6,15,21,2,22,13,20,23,10,2,16,26,1947.txt
0,0,0,0,0,27,26,20,0,0,0,11,18,24,20,15,9,25,26,12,15,12,15,27,5,7,0,0,0,0,0,4,0,4,8,0,26,0,18,15,10,8,14,5,5,0,1948.txt
0,0,0,0,0,27,0,20,0,0,0,0,18,24,20,6,9,0,8,11,0,0,23,12,18,7,27,21,30,0,0,21,0,0,0,0,26,0,18,15,0,13,18,0,0,0,1951.txt
0,0,0,0,0,27,26,20,0,0,0,11,18,24,20,15,9,25,26,12,15,12,15,27,0,7,0,0,0,0,0,4,0,4,0,0,26,0,18,15,10,8,14,0,0,0,1952.txt
0,0,0,0,0,27,26,28,0,0,0,11,21,0,0,15,0,0,26,12,0,0,15,18,0,0,27,21,30,0,0,21,0,0,0,0,26,0,18,15,10,8,2,0,0,0,1954.txt
30,21,6,27,26,17,19,12,11,10,9,24,2,7,15,5,23,7,17,17,27,11,10,27,7,29,15,23,8,23,13,10,25,27,2,29,25,28,25,26,22,22,14,20,28,26,1956.txt
0,0,0,0,0,27,26,20,0,0,0,11,18,24,20,15,9,25,26,12,15,12,15,27,0,7,0,0,0,0,0,4,0,4,0,0,26,0,18,15,10,8,14,0,0,0,1959.txt
1,17,22,11,24,23,17,6,21,15,7,30,6,20,6,13,24,8,11,7,26,1,5,20,28,10,21,14,21,17,17,18,14,15,28,22,13,7,13,7,13,15,24,28,28,1,1961.txt
0,0,0,0,0,27,26,20,0,0,0,11,18,24,20,15,9,25,26,12,15,12,10,27,0,7,0,0,0,0,0,4,0,4,0,0,26,0,18,15,10,8,14,0,0,0,1964.txt
1,5,14,1,8,30,17,6,21,6,22,1,15,17,13,26,16,10,26,12,15,12,15,27,0,26,6,18,18,8,18,18,21,15,26,30,29,28,25,27,26,21,29,2,16,29,1965.txt
0,0,0,0,0,27,26,28,0,0,0,11,21,0,0,15,0,0,26,12,0,0,15,18,0,0,28,19,28,0,0,21,0,0,0,0,26,0,18,15,10,8,17,0,0,0,1970.txt
1,0,17,1,8,30,17,6,21,6,22,1,15,17,13,15,29,25,26,12,15,12,15,27,0,7,6,7,23,8,28,4,19,4,2,3,3,3,3,3,10,8,14,12,16,15,1973.txt
0,0,5,0,0,27,26,20,0,0,0,11,18,24,20,15,9,25,26,12,15,12,24,22,7,7,27,21,30,0,0,4,0,4,6,0,26,0,18,15,10,8,10,2,16,26,1974.txt
0,0,0,0,0,27,26,20,0,0,0,11,18,24,20,15,9,25,26,12,15,12,15,27,7,7,0,0,0,0,0,4,0,4,9,0,26,0,18,15,10,8,14,6,6,0,1976.txt
0,0,0,0,0,27,26,20,0,0,0,11,18,24,20,15,9,25,26,12,15,12,0,27,0,7,0,0,0,0,0,4,0,4,6,3,3,3,3,3,10,8,14,2,16,24,1979.txt
0,0,0,0,0,27,26,20,0,0,0,11,18,24,20,15,9,25,26,12,15,12,15,27,0,7,0,0,0,0,0,4,0,4,23,0,26,0,18,15,10,8,14,2,16,30,1981.txt
0,0,5,0,0,27,0,23,0,0,0,0,21,0,0,6,0,0,28,12,0,0,0,18,0,0,27,21,30,0,0,21,0,0,0,0,26,0,18,15,0,25,2,0,0,0,1983.txt
1,16,22,11,24,23,1,7,18,15,6,30,5,20,6,3,29,28,21,8,26,21,20,30,10,12,21,14,21,26,7,18,26,15,28,26,15,24,17,30,24,21,7,17,28,18,1984.txt
1,17,22,16,24,19,12,6,21,15,18,30,4,20,6,10,24,10,13,7,26,1,5,20,27,20,21,14,18,17,9,18,14,15,28,22,8,7,13,7,24,21,29,3,24,1,1986.txt
12,17,30,20,24,4,3,9,6,4,3,3,3,3,6,18,13,17,19,17,10,14,24,24,5,17,13,9,19,14,20,13,21,27,25,29,25,28,25,26,13,15,24,17,28,26,1989.txt
0,0,0,0,0,27,26,20,0,0,0,11,18,24,20,15,9,23,3,11,0,30,23,14,18,7,9,27,20,29,28,6,11,20,22,25,24,26,11,11,10,8,14,12,28,13,1991.txt
0,0,0,0,0,27,20,28,0,0,0,23,21,0,0,21,0,23,26,12,0,0,16,27,0,0,0,0,0,0,0,14,0,18,22,0,26,0,18,15,6,6,14,12,28,16,1992.txt
0,0,0,0,0,27,26,28,0,0,0,11,21,0,0,15,0,0,26,12,0,0,15,22,0,0,27,21,30,0,0,21,0,0,0,0,26,0,18,15,10,8,10,0,0,0,1995.txt
0,0,0,0,0,27,26,20,0,0,0,11,18,24,20,15,9,25,26,12,15,12,15,18,0,7,27,21,30,0,0,4,0,4,0,0,26,0,18,15,10,8,10,0,0,0,1997.txt
30,21,0,29,2,17,19,11,5,9,26,2,8,2,19,19,22,27,18,2,11,14,2,26,12,25,2,23,8,20,27,2,2,5,27,23,24,16,17,19,20,23,17,13,28,29,1999.txt
1,17,22,1,5,4,17,6,21,4,22,29,15,17,6,1,29,4,8,11,7,26,23,14,10,12,8,7,25,10,28,27,18,26,22,19,18,26,10,19,17,20,7,12,28,18,2001.txt
0,0,0,0,0,27,26,20,0,0,0,11,18,24,20,15,9,25,26,12,15,12,15,18,22,7,27,21,30,6,5,4,5,4,0,9,10,9,14,12,10,8,11,0,0,9,2005.txt
0,0,0,0,0,27,26,20,0,0,0,11,18,24,20,15,9,25,26,12,15,12,2,22,12,7,28,19,28,0,0,4,0,4,0,0,26,0,18,15,10,8,9,0,0,0,2007.txt
0,0,0,0,0,27,26,20,0,0,0,11,18,24,20,15,9,25,26,12,15,12,15,27,0,7,0,0,0,0,0,4,0,4,0,0,26,0,18,15,10,8,14,0,0,0,2008.txt
1,5,14,16,13,3,17,6,21,16,28,7,4,6,8,8,16,20,4,4,8,21,13,4,30,24,9,17,18,19,28,26,23,7,22,7,14,10,8,9,4,4,4,28,24,16,2012.txt
1,17,22,1,16,9,1,7,16,15,22,1,15,17,6,25,15,9,10,9,23,1,7,15,10,12,17,28,18,30,8,19,14,22,19,26,15,7,13,7,17,20,29,12,18,17,2015.txt
0,0,0,0,0,27,26,20,0,0,0,11,18,24,20,15,9,25,26,12,15,12,15,27,0,7,0,0,0,0,0,4,0,4,30,0,26,0,18,15,10,8,14,12,28,28,2017.txt
0,0,0,0,0,27,26,28,0,0,0,11,21,0,0,15,0,22,26,12,0,0,15,27,0,0,0,0,0,0,0,21,0,0,0,0,26,0,18,15,10,8,14,0,0,0,2020.txt
0,0,0,0,0,27,26,20,0,0,0,11,18,24,20,15,9,25,26,12,15,12,15,27,0,7,0,0,0,0,0,4,0,4,0,0,26,0,18,15,10,8,14,0,0,0,2022.txt
0,0,0,0,0,27,26,20,0,0,0,11,18,24,20,15,9,25,26,12,15,12,10,18,7,7,27,21,30,0,0,4,0,4,5,0,26,0,18,15,10,8,15,4,2,0,2024.txt
0,0,0,0,0,27,0,28,0,0,0,0,21,0,0,27,0,0,27,12,0,0,15,27,0,0,0,0,0,0,0,21,0,0,0,0,26,0,18,15,11,12,14,0,0,0,2026.txt
0,0,0,0,0,27,26,20,0,0,0,11,18,24,20,0,9,25,26,0,15,12,15,27,0,6,0,0,0,0,0,4,0,4,0,0,26,0,18,15,10,8,14,0,0,0,2029.txt
0,0,0,0,0,27,26,20,0,0,0,11,18,24,20,15,9,25,26,12,15,12,2,26,12,7,13,7,14,14,28,4,21,4,30,3,3,3,3,3,20,23,2,2,16,15,2031.txt
0,0,0,0,0,27,0,28,0,0,0,0,21,0,0,27,0,0,27,12,0,0,15,18,0,0,27,21,30,6,0,21,5,0,0,9,23,9,14,12,11,12,18,0,0,0,2032.txt
0,0,0,0,0,27,26,20,0,0,0,11,18,24,20,15,9,25,26,12,15,12,15,27,0,7,0,0,0,0,0,4,0,4,22,0,26,0,18,15,10,8,14,10,28,24,2034.txt
0,0,0,0,0,27,26,20,0,0,0,11,18,24,20,15,9,0,26,12,0,0,15,27,0,7,0,0,0,0,0,21,0,0,0,0,26,0,18,15,10,8,14,0,0,0,2037.txt
0,0,0,0,0,27,26,20,0,0,0,11,18,24,20,15,9,25,26,12,15,12,10,18,7,7,27,21,30,0,0,4,0,4,26,0,26,0,18,15,10,8,10,2,16,26,2038.txt
0,0,0,0,0,27,26,28,0,0,0,11,24,0,29,15,28,23,26,12,0,30,10,18,5,0,6,9,22,8,28,6,21,20,6,3,3,3,3,3,20,23,11,17,11,29,2040.txt
0,0,0,0,0,27,26,28,0,0,0,11,24,0,29,15,26,23,26,12,0,30,15,18,0,0,6,9,16,8,26,6,11,20,30,3,3,3,3,3,10,8,22,17,28,29,2043.txt
1,0,17,1,13,9,17,6,21,15,22,1,15,17,6,15,29,23,8,11,22,24,20,14,18,7,9,27,27,29,28,6,11,20,22,0,26,0,18,15,10,8,14,12,28,30,2045.txt
0,0,0,0,0,27,26,20,0,0,0,11,18,24,20,15,9,22,26,12,0,0,12,27,7,7,0,0,0,6,30,21,5,17,5,9,10,9,14,6,10,8,14,4,2,9,2049.txt
0,0,0,0,0,27,26,20,0,0,0,11,18,24,20,15,9,25,26,12,15,12,15,27,7,7,0,0,0,0,0,4,0,4,0,0,26,0,18,15,10,8,14,0,0,0,2052.txt
0,0,0,0,0,27,0,28,0,0,0,0,24,0,29,30,28,23,8,11,0,30,21,29,21,0,9,30,14,29,26,23,21,20,3,21,24,16,11,19,11,25,2,17,28,30,2053.txt
0,0,0,0,0,27,26,20,29,8,14,11,2,13,2,15,21,0,26,2,27,19,10,27,5,7,0,0,0,0,13,10,25,24,9,15,12,2,22,10,22,22,14,6,6,0,2055.txt
0,0,0,0,0,27,0,20,0,0,0,0,18,24,20,27,9,25,27,12,15,12,15,18,0,7,27,21,30,0,0,4,0,4,0,0,26,0,18,15,11,12,10,0,0,0,2057.txt
0,0,0,0,0,27,26,20,0,0,0,11,18,24,20,15,9,0,8,21,0,0,22,11,21,7,27,21,30,0,0,21,0,0,0,0,26,0,18,15,10,8,17,0,0,0,2060.txt
0,0,0,0,0,27,0,20,0,0,0,0,18,24,20,27,9,0,27,12,0,0,15,18,0,7,27,21,30,0,0,21,0,0,0,0,26,0,18,15,12,12,10,0,0,0,2062.txt
0,0,0,0,0,27,26,20,29,8,9,11,16,7,15,15,21,25,26,2,25,2,10,18,7,7,27,21,30,0,0,10,0,23,9,15,21,2,22,13,21,26,10,6,6,0,2066.txt
0,0,0,0,0,27,26,20,29,8,26,11,8,14,16,15,21,25,8,11,11,14,22,14,30,7,6,7,22,8,17,13,21,27,30,15,21,2,2,14,22,22,17,12,19,15,2067.txt
0,0,0,0,0,27,26,20,0,0,0,11,18,24,20,15,9,25,26,12,15,12,10,27,0,7,0,0,0,0,0,4,0,4,6,0,26,0,18,15,10,8,14,10,16,29,2069.txt
0,0,0,0,0,27,26,20,0,0,0,11,18,24,20,15,9,0,26,12,0,0,15,27,0,7,0,0,0,0,0,21,0,0,0,0,26,0,18,15,10,8,14,0,0,0,2072.txt
0,0,0,0,0,27,26,20,0,0,0,11,18,24,20,15,9,25,26,12,15,12,15,27,0,7,0,0,0,0,0,4,0,4,0,0,26,0,18,15,10,8,14,0,0,0,2074.txt
0,0,0,0,0,27,0,23,0,0,0,0,19,0,0,27,0,23,27,12,0,0,16,19,0,0,27,21,30,0,0,23,0,18,11,0,26,0,18,15,11,12,2,28,20,2,2078.txt
0,0,0,0,0,27,26,20,0,0,0,11,18,24,20,15,9,25,26,12,15,12,15,27,0,7,0,0,0,0,0,4,0,4,0,0,26,0,18,15,10,8,14,0,0,0,2080.txt
0,0,0,0,0,27,26,20,0,0,0,11,18,24,20,15,9,25,26,12,15,12,15,27,0,7,0,0,0,0,0,4,0,4,6,3,3,3,3,3,10,8,14,2,16,26,2083.txt
0,0,0,0,0,27,26,20,0,0,0,11,18,24,20,15,9,25,26,12,15,12,15,27,0,7,0,0,0,0,0,4,0,4,0,0,26,0,18,15,10,8,14,0,0,0,2085.txt
0,0,0,0,0,27,26,28,0,0,0,11,21,0,0,15,0,22,26,12,0,0,15,18,0,0,27,21,30,0,0,6,0,19,6,0,26,0,18,15,10,8,18,12,28,29,2087.txt
0,0,0,0,0,27,26,20,0,0,0,11,18,24,20,15,9,25,26,12,15,12,15,27,0,7,0,0,0,0,0,4,0,4,0,0,26,0,18,15,10,8,14,0,0,0,2090.txt
0,0,0,0,0,27,26,20,0,0,0,11,18,24,20,15,9,25,26,12,15,12,15,27,7,7,0,0,0,0,0,4,0,4,0,0,26,0,18,15,10,8,14,0,0,0,2092.txt
1,5,14,1,13,3,17,6,21,16,22,1,15,17,8,26,17,20,21,24,15,12,22,30,10,3,14,17,18,19,28,26,23,7,22,26,20,27,17,20,4,4,4,3,16,17,2093.txt
1,0,14,1,1,1,12,6,8,1,24,1,14,16,8,15,6,25,13,16,26,21,5,20,27,7,21,14,18,27,28,4,21,4,29,13,13,10,7,9,4,4,4,2,16,17,2096.txt
0,0,0,0,0,27,0,28,0,0,0,0,21,0,0,6,0,0,0,12,0,0,15,2,0,0,27,21,30,0,0,21,0,0,0,0,26,0,18,15,11,25,17,0,0,0,2098.txt
28,5,14,1,5,19,12,5,7,16,22,1,15,17,8,1,29,20,11,7,26,23,5,20,28,20,7,8,18,17,8,26,23,7,28,17,16,23,13,20,4,4,4,27,24,17,2099.txt
30,21,0,27,26,17,19,12,29,8,14,2,2,8,16,18,21,17,25,17,13,2,2,27,7,17,16,25,8,22,13,20,28,27,5,15,21,2,2,13,22,22,14,4,2,0,2101.txt
0,0,0,0,0,27,26,20,0,0,0,11,18,24,20,15,9,25,26,12,15,12,15,27,7,7,0,0,0,0,0,4,0,4,0,0,26,0,18,15,10,8,14,0,0,0,2103.txt
0,0,0,0,0,27,26,20,0,0,0,11,18,24,20,15,9,25,26,12,15,12,2,22,0,7,28,22,28,0,0,4,0,4,6,0,26,0,18,15,10,8,9,17,28,29,2105.txt
0,0,0,0,0,27,26,20,0,0,0,11,18,24,20,15,9,25,26,12,15,12,15,27,0,7,0,0,0,0,0,4,0,4,6,0,26,0,18,15,10,8,14,12,16,26,2107.txt
0,0,0,0,0,27,26,20,0,0,0,11,18,24,20,15,9,25,26,12,15,12,15,18,7,7,27,21,30,0,0,4,0,4,9,0,26,0,18,15,10,8,10,6,6,0,2110.txt
0,0,0,0,0,27,26,20,0,0,0,11,18,24,20,15,9,0,26,12,0,0,10,18,7,7,27,21,30,0,0,21,0,0,9,0,26,0,18,15,10,8,18,6,6,11,2113.txt
0,0,0,0,0,27,26,20,0,0,0,11,18,24,20,15,9,25,26,12,15,12,15,18,0,7,27,21,30,0,0,4,0,4,0,0,26,0,18,15,10,8,15,0,0,0,2114.txt
30,21,0,29,2,17,19,12,2,10,26,2,2,2,2,5,23,7,17,2,13,19,2,27,19,29,2,23,8,25,2,2,25,27,27,15,21,2,2,13,23,22,14,2,9,26,2117.txt
0,0,0,0,0,27,26,20,0,0,0,11,18,24,20,15,9,25,26,12,15,12,15,27,0,7,0,0,0,0,0,4,0,4,0,0,26,0,18,15,10,8,14,0,0,0,2119.txt
0,0,0,0,0,27,26,20,0,0,0,11,18,24,20,15,9,25,26,12,15,12,15,27,0,7,0,0,0,0,0,4,0,4,0,0,26,0,18,15,10,8,14,0,0,0,2121.txt
1,17,22,16,5,19,12,6,21,12,7,7,6,21,6,13,6,8,11,13,26,5,5,20,27,20,21,14,21,17,28,18,14,15,29,12,13,8,13,8,13,15,24,26,17,1,2122.txt
0,0,0,0,0,27,26,20,0,0,0,11,18,24,20,15,9,25,26,12,15,12,15,27,0,7,0,0,0,0,0,4,0,4,0,0,26,0,18,15,10,8,14,0,0,0,2125.txt
0,0,0,0,0,27,26,20,0,0,0,11,18,24,20,15,9,25,26,12,15,12,10,18,0,7,27,21,30,0,0,4,0,4,0,0,26,0,18,15,10,8,10,0,0,0,2126.txt
0,0,0,0,0,27,26,20,0,0,0,11,18,24,20,15,9,25,26,12,15,12,15,27,0,7,0,0,0,0,0,4,0,4,0,0,26,0,18,15,10,8,14,0,0,0,2129.txt
0,0,0,0,0,27,26,28,0,0,0,11,21,0,0,15,0,23,8,11,17,24,6,12,10,0,27,21,30,4,0,21,5,0,0,9,10,9,14,12,10,8,10,0,0,0,2130.txt
0,0,0,0,0,27,26,20,0,0,0,11,18,24,20,15,9,25,26,12,15,12,10,27,7,7,0,0,0,0,0,4,0,4,9,0,26,0,18,15,2,14,14,6,6,0,2133.txt
0,0,0,0,0,27,0,20,0,0,0,0,18,24,20,27,9,25,27,12,15,12,15,27,0,7,0,0,0,0,0,4,0,4,0,0,26,0,18,15,11,12,14,0,0,0,2135.txt
0,0,0,0,0,27,26,20,0,0,0,11,18,24,20,15,9,25,26,12,15,12,10,27,0,7,0,0,0,0,0,4,0,4,27,0,26,0,18,15,10,8,14,12,16,27,2137.txt
0,0,0,0,0,27,26,20,0,0,0,11,18,24,20,15,9,25,26,12,15,12,15,27,0,7,0,0,0,0,0,4,0,4,0,0,26,0,18,15,10,8,14,0,0,0,2139.txt
0,0,0,0,0,27,26,20,0,0,0,11,18,24,20,15,9,0,26,12,15,12,10,18,7,7,27,21,30,0,0,4,0,4,9,0,26,0,18,15,22,22,10,6,6,0,2141.txt
0,0,0,0,0,27,26,20,0,0,0,11,18,24,20,15,9,25,26,12,15,12,15,27,0,7,0,0,0,0,0,4,0,4,0,0,26,0,18,15,10,8,14,0,0,0,2142.txt
17,8,22,16,24,19,1,5,7,17,22,1,15,17,11,3,11,10,10,7,16,1,17,16,10,14,21,28,22,30,19,19,26,22,19,17,8,7,11,7,29,21,29,25,24,1,2145.txt
0,0,0,0,0,27,26,20,0,0,0,11,18,24,20,15,9,25,26,12,15,12,15,27,0,7,0,0,0,0,0,4,0,4,0,0,26,0,18,15,10,8,14,0,0,0,2147.txt
0,0,0,0,0,27,26,20,0,0,0,11,18,24,20,15,9,25,8,9,15,12,14,10,17,7,0,0,0,0,0,4,0,4,6,0,26,0,18,15,10,8,14,10,16,24,2149.txt
0,0,0,0,0,27,26,20,0,0,0,11,18,24,20,15,9,25,26,12,15,12,15,27,0,7,0,0,0,0,0,4,0,4,6,3,3,3,3,3,10,8,14,13,28,26,2151.txt
30,30,5,29,2,15,19,17,5,9,14,26,16,28,18,14,22,16,1,1,10,13,22,1,21,17,2,6,9,2,27,13,17,5,12,2,2,2,23,2,22,22,17,15,16,30,2153.txt
0,0,5,0,0,27,0,23,0,0,0,0,21,0,0,27,0,23,27,12,0,0,10,18,7,0,27,21,30,0,0,15,0,18,3,0,26,0,18,15,12,12,10,28,14,17,2154.txt
30,21,5,29,2,15,19,2,5,9,26,2,10,27,16,14,22,16,18,2,11,14,2,26,2,25,2,25,8,22,27,7,17,27,5,2,2,2,2,2,20,23,9,4,2,0,2156.txt
0,0,0,0,0,27,26,20,0,0,0,11,18,24,20,15,9,25,26,12,15,12,15,27,0,7,0,0,0,0,0,4,0,4,0,0,26,0,18,15,10,8,14,0,0,0,2160.txt
0,0,0,0,0,27,26,20,0,0,0,11,18,24,20,15,9,25,26,12,15,12,15,27,0,7,0,0,0,0,0,4,0,4,6,24,1,16,11,19,10,8,14,2,16,26,2161.txt
1,5,14,1,13,3,17,6,21,16,22,29,15,17,8,26,15,20,21,24,20,22,20,30,14,3,9,17,18,19,17,26,21,7,22,7,13,18,17,19,4,4,4,3,16,22,2165.txt
1,17,22,11,3,9,1,7,18,15,17,4,13,4,6,9,5,9,23,28,22,21,7,15,10,12,24,29,18,29,8,8,26,10,21,26,19,27,13,22,17,20,29,12,28,17,2166.txt
0,0,0,0,0,27,26,20,0,0,0,11,18,24,20,15,9,25,26,12,15,12,10,27,7,7,0,0,0,0,0,4,0,4,9,0,26,0,18,15,10,8,14,6,6,0,2168.txt
1,17,17,1,24,4,17,6,8,15,22,1,15,17,6,30,13,23,8,11,20,16,22,3,30,0,9,27,27,29,7,15,11,21,3,6,8,22,28,29,9,9,7,17,14,30,2171.txt
0,0,0,0,0,27,26,20,0,0,0,11,18,24,20,15,9,25,26,12,15,12,15,27,0,7,0,0,0,0,0,4,0,4,0,0,26,0,18,15,10,8,14,0,0,0,2173.txt
0,0,0,0,0,27,26,20,0,0,0,11,18,24,20,15,9,25,26,12,15,12,15,27,0,7,0,0,0,0,0,4,0,4,0,0,26,0,18,15,10,8,14,0,0,0,2176.txt
0,0,0,0,0,27,26,20,0,0,0,11,18,24,20,15,9,25,26,12,15,12,15,18,0,7,27,21,30,0,0,4,0,4,0,0,26,0,18,15,10,8,10,0,0,0,2177.txt
30,21,6,29,2,17,19,12,13,10,9,28,16,7,15,18,23,17,25,2,2,11,10,18,7,17,15,23,8,25,15,13,2,27,25,29,25,28,25,26,2,14,10,17,28,26,2179.txt
0,0,0,0,0,27,26,20,0,0,0,11,18,24,20,15,9,25,26,12,15,12,15,27,0,7,0,0,0,0,0,4,0,4,0,0,26,0,18,15,10,8,14,0,0,0,2181.txt
0,0,0,0,0,27,26,20,0,0,0,11,18,24,20,15,9,25,26,12,15,12,2,27,0,7,0,0,0,0,0,4,0,4,0,0,26,0,18,15,10,8,14,0,0,0,2184.txt
0,0,0,0,0,27,0,28,0,0,0,0,21,0,0,27,0,23,8,27,0,0,3,10,10,0,27,21,30,0,0,6,0,20,3,0,26,0,18,15,11,13,2,17,28,30,2186.txt
0,0,0,0,0,27,26,20,0,0,0,11,18,24,20,15,9,25,26,12,15,12,15,27,0,7,0,0,0,0,0,4,0,4,0,0,26,0,18,15,10,8,14,0,0,0,2188.txt
0,0,0,0,0,27,26,20,0,0,0,11,18,24,20,15,9,0,23,27,0,0,23,17,29,7,0,0,0,0,0,21,0,0,0,0,26,0,18,15,10,8,14,0,0,0,2189.txt
0,0,0,0,0,27,26,20,0,0,0,11,18,24,20,15,9,25,26,12,15,12,12,22,12,7,25,22,28,0,0,4,0,4,5,0,26,0,18,15,10,8,16,4,2,0,2191.txt
0,0,0,0,0,27,26,20,0,0,0,11,18,24,20,15,9,13,26,12,15,12,2,27,2,7,0,0,0,0,0,3,0,3,6,0,26,0,18,15,20,23,5,2,16,27,2194.txt
0,0,0,0,0,27,26,20,0,0,0,11,18,24,20,15,9,26,26,12,15,12,15,27,0,7,0,0,0,0,0,28,0,3,2,3,3,3,3,3,30,5,14,12,28,15,2196.txt
0,0,5,0,0,27,26,20,0,0,0,11,18,24,20,15,9,0,26,12,0,0,15,22,0,7,28,22,28,0,0,21,0,0,0,0,26,0,18,15,10,8,9,0,0,0,2200.txt
0,0,0,0,0,27,26,20,0,0,0,11,18,24,20,15,9,25,26,12,15,12,2,27,2,7,0,0,0,0,0,4,0,4,5,0,26,0,18,15,10,8,5,4,2,0,2201.txt
0,0,0,0,0,27,26,20,0,0,0,11,18,24,20,15,9,25,26,12,15,12,15,22,0,7,27,21,30,0,0,4,0,4,0,0,26,0,18,15,10,8,17,0,0,0,2204.txt
0,0,0,0,0,27,26,20,0,0,0,11,18,24,20,15,9,25,26,12,15,12,15,22,0,7,27,21,30,0,0,4,0,4,0,0,26,0,18,15,10,8,11,0,0,0,2206.txt
0,0,0,0,0,27,26,20,0,0,0,11,18,24,20,15,9,25,26,12,15,12,15,27,0,7,0,0,0,0,0,4,0,4,6,0,26,0,18,15,10,8,14,10,16,24,2209.txt
0,0,0,0,0,27,0,28,0,0,0,16,24,0,29,30,28,22,8,21,0,30,3,10,18,0,9,28,7,30,26,15,20,19,3,18,8,22,12,29,12,25,10,28,28,24,2211.txt
0,0,0,0,0,27,26,20,0,0,0,11,18,24,20,15,9,26,26,12,15,12,15,27,0,7,0,0,0,0,0,28,0,3,7,0,26,0,18,15,30,5,14,2,16,30,2213.txt
0,0,0,0,0,27,26,20,0,0,0,11,18,24,20,15,9,25,26,12,15,12,15,27,0,7,0,0,0,6,12,4,5,4,0,9,23,9,14,12,10,8,5,0,0,9,2215.txt
0,0,0,0,0,27,26,20,0,0,0,11,18,24,20,15,9,23,26,0,0,30,15,22,0,7,6,9,1,8,3,6,10,6,6,3,3,3,3,3,10,8,9,17,11,29,2217.txt
0,0,0,0,0,27,26,20,0,0,0,11,18,24,20,15,9,25,26,12,15,12,15,27,0,7,0,0,0,0,0,4,0,4,27,0,26,0,18,15,10,8,14,2,16,29,2219.txt
1,17,22,15,3,9,1,7,18,17,7,7,6,6,7,4,4,29,1,1,20,22,20,1,11,3,3,30,27,29,11,30,6,26,1,7,13,20,17,11,17,20,7,3,24,22,2220.txt
0,0,0,0,0,27,26,20,0,0,0,11,18,24,20,15,9,25,26,12,15,12,15,27,0,7,6,9,1,8,3,4,9,4,6,3,3,3,3,3,10,8,14,10,28,29,2223.txt
0,0,0,0,0,27,26,20,0,0,0,11,18,24,20,15,9,0,26,12,0,0,15,27,0,7,0,0,0,0,0,21,0,0,0,0,26,0,18,15,10,8,14,0,0,0,2225.txt
0,0,0,0,0,27,26,20,0,0,0,11,18,24,20,15,9,25,26,12,15,12,15,27,0,7,0,0,0,0,0,4,0,4,0,0,26,0,18,15,10,8,14,0,0,0,2227.txt
0,0,0,0,0,27,0,28,0,0,0,0,21,0,0,27,0,23,27,12,0,0,15,18,0,0,27,21,30,0,0,6,0,20,3,0,26,0,18,15,11,12,10,17,14,18,2229.txt
30,21,5,29,2,15,19,17,20,2,14,28,16,8,16,18,2,17,19,2,13,2,10,18,7,17,2,23,8,24,14,2,2,27,15,30,29,28,25,27,22,22,10,15,9,29,2231.txt
0,0,0,0,0,27,26,20,0,0,0,11,18,24,20,15,9,25,26,12,15,12,15,27,0,7,0,0,0,0,0,4,0,4,0,0,26,0,18,15,10,8,14,0,0,0,2232.txt
0,0,0,0,0,27,26,28,0,0,0,11,21,0,0,15,0,0,8,3,0,0,14,14,17,0,0,0,0,7,0,21,8,0,0,11,23,15,21,4,10,8,0,0,0,0,2234.txt
0,0,0,0,0,27,26,20,0,0,0,11,18,24,20,0,9,26,26,0,15,12,15,27,0,19,0,0,0,0,0,28,0,3,6,0,0,0,0,0,30,5,14,2,16,24,2237.txt
0,0,0,0,0,27,26,20,0,0,0,11,18,24,20,15,9,25,26,12,15,12,15,27,0,7,0,0,0,0,0,4,0,4,2,3,3,3,3,3,10,8,14,10,28,29,2240.txt
0,0,0,0,0,27,26,20,0,0,0,11,18,24,20,15,9,25,26,12,15,12,15,22,0,7,27,21,30,0,0,4,0,4,0,0,26,0,18,15,10,8,10,0,0,0,2241.txt
0,0,0,0,0,27,26,28,0,0,0,11,24,0,29,15,26,23,26,12,0,30,15,27,7,0,0,0,0,0,0,6,0,20,6,3,3,3,3,3,10,8,14,12,28,26,2244.txt
0,0,0,0,0,27,26,20,0,0,0,11,18,24,20,15,9,0,26,12,0,0,15,18,7,7,27,21,30,0,0,21,0,0,0,0,26,0,18,15,10,8,10,0,0,0,2245.txt
0,0,0,0,0,27,26,20,0,0,0,11,18,24,20,15,9,25,26,12,15,12,15,27,0,7,0,0,0,0,0,4,0,4,0,0,26,0,18,15,10,8,14,0,0,0,2247.txt
0,0,0,0,0,27,26,20,0,0,0,11,18,24,20,15,9,25,26,12,15,12,15,27,0,7,0,0,0,0,0,4,0,4,2,0,26,0,18,15,10,8,19,2,16,24,2249.txt
0,0,0,0,0,27,26,20,0,0,0,11,18,24,20,15,9,25,26,12,15,12,15,27,0,7,0,0,0,0,0,4,0,4,0,0,26,0,18,15,10,8,14,0,0,0,2252.txt
0,0,5,0,0,27,0,28,11,2,13,0,16,13,16,6,2,0,28,2,27,19,10,18,7,0,28,22,28,0,0,10,0,23,8,2,2,2,22,2,23,22,10,5,5,12,2255.txt
0,0,0,0,0,27,26,20,0,0,0,11,18,24,20,15,9,25,26,12,15,12,15,27,0,7,6,7,14,8,3,4,21,4,30,3,3,3,3,3,10,8,14,2,16,15,2257.txt
0,0,0,0,0,27,26,20,0,0,0,11,18,24,20,15,9,25,26,12,15,12,10,18,7,7,27,21,30,0,0,4,0,4,0,0,26,0,18,15,10,8,10,0,0,0,2258.txt
0,0,0,0,0,27,26,20,0,0,0,11,18,24,20,0,9,0,26,0,0,0,15,27,0,6,0,0,0,0,0,21,0,0,0,0,26,0,18,15,10,8,14,0,0,0,2260.txt
