0,1,2,3,4,5,6,7,8,9,10,11,12,13,14,15,16,17,18,19,20,21,22,23,24,25,26,27,28,29,30,31,32,33,34,35,36,filename
0,30,26,20,21,21,18,18,18,18,18,19,19,24,24,23,22,22,22,23,24,25,24,24,24,23,26,24,24,26,24,23,23,24,23,23,23,2.txt
29,19,29,21,22,23,21,21,21,21,29,19,19,29,23,21,21,21,21,21,23,24,23,23,23,22,24,23,23,24,23,22,22,23,22,22,22,5.txt
29,30,29,21,22,23,21,21,21,21,29,19,19,24,24,23,22,22,22,23,24,25,24,24,24,23,26,24,24,26,24,23,23,24,23,23,23,9.txt
29,30,29,21,22,23,21,21,21,21,29,19,19,29,23,21,21,21,21,21,23,24,23,23,23,22,24,23,23,24,23,22,22,23,22,22,22,12.txt
29,30,29,21,22,23,21,21,21,21,29,19,19,29,23,21,21,21,21,21,23,24,23,23,23,22,24,23,23,24,23,22,22,23,22,22,22,14.txt
29,30,29,21,22,23,21,21,21,21,29,23,23,29,23,21,21,21,21,21,23,24,23,23,23,22,24,23,23,24,23,22,22,23,22,22,22,16.txt
29,30,29,21,22,23,21,21,21,21,29,19,19,29,23,21,21,21,21,21,23,24,23,23,23,22,24,23,23,24,23,22,22,23,22,22,22,17.txt
29,30,29,21,22,23,21,21,21,21,29,19,19,29,23,21,21,21,21,21,23,24,23,23,23,22,24,23,23,24,23,22,22,23,22,22,22,21.txt
29,30,29,21,22,23,21,21,21,21,29,19,19,29,23,21,21,21,21,21,23,24,23,23,23,22,24,23,23,24,23,22,22,23,22,22,22,23.txt
29,30,29,21,22,23,21,21,21,21,29,19,19,29,23,21,21,21,21,21,23,24,23,23,23,22,24,23,23,24,23,22,22,23,22,22,22,24.txt
29,30,29,21,22,23,21,21,21,21,15,19,19,29,23,21,21,21,21,21,23,24,23,23,23,22,24,23,23,24,23,22,22,23,22,22,22,26.txt
29,30,29,21,22,23,21,21,21,21,29,23,23,29,23,21,21,21,21,21,23,24,23,23,23,22,24,23,23,24,23,22,22,23,22,22,22,28.txt
0,12,0,1,1,0,1,1,1,1,0,0,0,0,0,0,1,1,1,12,1,1,1,1,1,1,15,1,1,15,1,1,1,1,1,1,1,30.txt
29,30,29,21,22,23,21,21,21,21,29,19,19,29,23,21,21,21,21,21,23,24,23,23,23,22,24,23,23,24,23,22,22,23,22,22,22,32.txt
0,30,29,21,22,23,21,21,21,21,18,23,23,29,23,21,21,21,21,21,23,24,23,23,23,22,24,23,23,24,23,22,22,23,22,22,22,34.txt
29,30,29,21,22,23,21,21,21,21,29,19,19,29,23,21,21,21,21,21,23,24,23,23,23,22,24,23,23,24,23,22,22,23,22,22,22,36.txt
29,30,29,21,22,23,21,21,21,21,29,19,19,29,23,21,21,21,21,21,23,24,23,23,23,22,24,23,23,24,23,22,22,23,22,22,22,40.txt
0,30,26,20,21,21,18,18,18,18,18,19,19,24,24,23,22,22,22,23,24,25,24,24,24,23,26,24,24,26,24,23,23,24,23,23,23,41.txt
29,30,29,21,22,23,21,21,21,21,29,23,23,29,23,21,21,21,21,21,23,24,23,23,23,22,24,23,23,24,23,22,22,23,22,22,22,49.txt
22,12,19,13,28,29,27,27,27,27,17,20,20,27,26,22,24,24,24,25,26,27,26,26,26,28,28,26,26,28,26,25,25,26,25,25,25,53.txt
0,12,0,1,1,0,1,1,1,1,0,0,0,16,17,15,15,15,15,15,17,18,17,17,17,16,18,17,17,18,17,16,16,17,16,15,15,55.txt
29,30,29,21,22,23,21,21,21,21,29,19,19,29,23,21,21,21,21,21,23,24,23,23,23,22,24,23,23,24,23,22,22,23,22,22,22,57.txt
22,12,19,13,28,29,27,27,27,27,17,20,20,23,26,22,24,24,24,25,26,27,26,26,26,28,28,26,26,28,26,25,25,26,25,25,25,60.txt
22,12,19,13,28,29,27,27,27,27,17,20,20,23,26,22,24,24,24,25,26,27,26,26,26,28,28,26,26,28,26,25,25,26,25,25,25,61.txt
29,17,7,29,30,30,28,25,25,25,22,23,23,29,23,21,21,21,21,21,23,24,23,23,23,22,24,23,23,24,23,22,22,23,22,22,22,63.txt
29,30,29,21,22,23,21,21,21,21,29,19,19,29,23,21,21,21,21,21,23,24,23,23,23,22,24,23,23,24,23,22,22,23,22,22,22,65.txt
20,17,7,29,30,30,28,25,25,25,22,22,22,29,23,21,21,21,21,21,23,24,23,23,23,22,24,23,23,24,23,22,22,23,22,22,22,68.txt
29,30,29,21,22,23,21,21,21,21,29,19,19,29,23,21,21,21,21,21,23,24,23,23,23,22,24,23,23,24,23,22,22,23,22,22,22,71.txt
29,19,29,21,22,23,21,21,21,21,29,23,23,29,30,21,21,21,21,21,23,24,23,23,23,22,24,23,23,24,23,22,22,23,22,22,22,72.txt
29,30,29,21,22,23,21,21,21,21,29,19,19,29,23,21,21,21,21,21,23,24,23,23,23,22,24,23,23,24,23,22,22,23,22,22,22,76.txt
29,30,29,21,22,23,21,21,21,21,29,19,19,29,23,21,21,21,21,21,23,24,23,23,23,22,24,23,23,24,23,22,22,23,22,22,22,78.txt
29,30,29,21,22,23,21,21,21,21,29,19,19,24,24,23,22,22,22,23,24,25,24,24,24,23,26,24,24,26,24,23,23,24,23,23,23,81.txt
22,30,19,13,28,29,27,27,27,27,17,20,20,28,28,26,26,26,26,26,28,29,28,28,28,27,29,28,28,29,28,27,27,28,27,27,27,84.txt
29,30,29,21,22,23,21,21,21,21,29,19,19,29,23,21,21,21,21,21,23,24,23,23,23,22,24,23,23,24,23,22,22,23,22,22,22,86.txt
0,30,26,20,21,21,18,18,18,18,18,19,19,24,24,23,22,22,22,23,24,25,24,24,24,23,26,24,24,26,24,23,23,24,23,23,23,89.txt
29,30,29,21,22,23,21,21,21,21,29,19,19,29,23,21,21,21,21,21,23,24,23,23,23,22,24,23,23,24,23,22,22,23,22,22,22,90.txt
29,30,29,21,22,23,21,21,21,21,29,19,19,29,23,21,21,21,21,21,23,24,23,23,23,22,24,23,23,24,23,22,22,23,22,22,22,92.txt
29,30,29,21,22,23,21,21,21,21,29,19,19,22,23,21,21,21,21,21,23,24,23,23,23,22,24,23,23,24,23,22,22,23,22,22,22,95.txt
29,30,10,21,22,4,21,21,21,21,29,19,19,29,23,2,21,21,21,21,23,24,23,23,23,22,24,23,23,24,23,22,22,23,22,22,22,97.txt
0,12,0,1,1,0,1,1,1,1,0,0,0,13,14,12,12,12,12,12,14,15,15,15,15,14,15,15,15,15,19,14,14,14,13,13,13,98.txt
29,30,29,21,22,23,21,21,21,21,29,19,19,29,23,21,21,21,21,21,23,24,23,23,23,22,24,23,23,24,23,22,22,23,22,22,22,100.txt
29,30,29,21,22,23,21,21,21,21,29,19,19,29,23,21,21,21,21,21,23,24,23,23,23,22,24,23,23,24,23,22,22,23,22,22,22,102.txt
22,30,19,13,28,29,27,27,27,27,17,20,20,22,26,22,24,24,24,25,26,27,26,26,26,28,28,26,26,28,26,25,25,26,25,25,25,105.txt
29,30,29,21,22,23,21,21,21,21,29,19,19,29,23,21,21,21,21,22,23,24,23,23,23,22,25,23,23,25,23,22,22,23,22,22,22,108.txt
29,30,29,21,22,23,21,21,21,21,29,19,19,29,23,21,21,21,21,21,23,24,23,23,23,22,24,23,23,24,23,22,22,23,22,22,22,110.txt
29,30,29,21,22,23,21,21,21,21,29,19,19,29,23,21,21,21,21,21,23,24,23,23,23,22,24,23,23,24,23,22,22,23,22,22,22,112.txt
29,30,29,21,22,23,21,21,21,21,29,23,23,24,24,23,22,22,22,23,24,25,24,24,24,23,26,24,24,26,24,23,23,24,23,23,23,114.txt
0,30,26,20,21,21,18,18,18,18,18,19,19,24,24,23,22,22,22,23,24,25,24,24,24,23,26,24,24,26,24,23,23,24,23,23,23,116.txt
29,30,29,21,22,23,21,21,21,21,29,19,19,29,23,21,21,21,21,21,23,24,23,23,23,22,24,23,23,24,23,22,22,23,22,22,22,118.txt
0,19,26,20,21,21,18,18,18,18,18,23,23,16,23,21,21,21,21,21,23,24,23,23,23,22,24,23,23,24,23,22,22,23,22,22,22,121.txt
29,30,29,21,22,23,21,21,21,21,29,19,19,29,23,21,21,21,21,21,23,24,23,23,23,22,24,23,23,24,23,22,22,23,22,22,22,123.txt
29,30,29,21,22,23,21,21,21,21,29,23,23,29,23,21,21,21,21,21,23,24,23,23,23,22,24,23,23,24,23,22,22,23,22,22,22,124.txt
29,30,29,21,22,23,21,21,21,21,29,23,23,29,23,21,21,21,21,21,23,24,23,23,23,22,24,23,23,24,23,22,22,23,22,22,22,126.txt
29,30,29,21,22,23,21,21,21,21,29,19,19,29,23,21,21,21,21,21,23,24,23,23,23,22,24,23,23,24,23,22,22,23,22,22,22,128.txt
29,30,29,21,22,23,21,21,21,21,29,23,23,29,23,21,21,21,21,21,23,24,23,23,23,22,24,23,23,24,23,22,22,23,22,22,22,130.txt
29,30,29,21,22,23,21,21,21,21,29,19,19,29,23,21,21,21,21,21,23,24,23,23,23,22,24,23,23,24,23,22,22,23,22,22,22,132.txt
29,30,29,21,22,23,21,21,21,21,29,19,19,29,23,21,21,21,21,21,23,24,23,23,23,22,24,23,23,24,23,22,22,23,22,22,22,135.txt
29,30,29,21,22,23,21,21,21,21,29,19,19,29,23,21,21,21,21,21,23,24,23,23,23,22,24,23,23,24,23,22,22,23,22,22,22,137.txt
29,30,29,21,22,23,21,21,21,21,29,19,19,24,24,23,22,22,22,23,24,25,24,24,24,23,26,24,24,26,24,23,23,24,23,23,23,141.txt
0,30,29,21,22,23,21,21,21,21,15,19,19,29,23,21,21,21,21,21,23,24,23,23,23,22,24,23,23,24,23,22,22,23,22,22,22,144.txt
29,30,29,21,22,23,21,21,21,21,29,19,19,29,23,21,21,21,21,21,23,24,23,23,23,22,24,23,23,24,23,22,22,23,22,22,22,145.txt
29,12,29,21,22,23,21,21,21,21,29,23,23,23,23,21,21,21,21,21,23,24,23,23,23,22,24,23,23,24,23,22,22,23,22,22,22,147.txt
0,30,26,20,21,21,18,18,18,18,18,23,23,24,30,23,22,22,22,23,24,25,24,24,24,23,26,24,24,26,24,23,23,24,23,23,23,149.txt
29,30,29,21,22,23,21,21,21,21,29,19,19,29,23,21,21,21,21,21,23,24,23,23,23,22,24,23,23,24,23,22,22,23,22,22,22,151.txt
29,30,29,21,22,23,21,21,21,21,29,19,19,29,23,21,21,21,21,21,23,24,23,23,23,22,24,23,23,24,23,22,22,23,22,22,22,154.txt
29,30,29,21,22,23,21,21,21,21,29,19,19,29,23,21,21,21,21,21,23,24,23,23,23,22,24,23,23,24,23,22,22,23,22,22,22,156.txt
29,30,29,21,22,23,21,21,21,21,29,19,19,29,23,21,21,21,21,21,23,24,23,23,23,22,24,23,23,24,23,22,22,23,22,22,22,158.txt
29,30,29,21,22,23,21,21,21,21,29,19,19,29,23,21,21,21,21,21,23,24,23,23,23,22,24,23,23,24,23,22,22,23,22,22,22,160.txt
29,30,29,21,22,23,21,21,21,21,29,19,19,29,23,21,21,21,21,21,23,24,23,23,23,22,24,23,23,24,23,22,22,23,22,22,22,161.txt
22,13,19,13,28,29,27,27,27,27,17,20,20,28,28,26,26,26,26,26,28,29,28,28,28,27,29,28,28,29,28,27,27,28,27,27,27,163.txt
29,30,29,21,22,23,21,21,21,21,29,19,19,29,23,21,21,21,21,21,23,24,23,23,23,22,24,23,23,24,23,22,22,23,22,22,22,165.txt
29,30,29,21,22,23,21,21,21,21,29,19,19,29,23,21,21,21,21,21,23,24,23,23,23,22,24,23,23,24,23,22,22,23,22,22,22,167.txt
29,30,29,21,22,23,21,21,21,21,29,19,19,29,23,21,21,21,21,21,23,24,23,23,23,22,24,23,23,24,23,22,22,23,22,22,22,169.txt
29,30,29,21,22,23,21,21,21,21,29,19,19,29,23,21,21,21,21,21,23,24,23,23,23,22,24,23,23,24,23,22,22,23,22,22,22,171.txt
22,12,19,13,28,29,27,27,27,27,17,20,20,25,25,24,23,23,23,24,25,26,25,25,25,24,27,25,25,27,25,24,24,25,24,24,24,173.txt
0,30,29,21,22,23,21,21,21,21,18,19,19,29,23,21,21,21,21,21,23,24,23,23,23,22,24,23,23,24,23,22,22,23,22,22,22,175.txt
29,30,29,21,22,23,21,21,21,21,29,19,19,22,23,21,21,21,21,21,23,24,23,23,23,22,24,23,23,24,23,22,22,23,22,22,22,177.txt
22,30,24,28,29,28,26,26,26,26,23,20,20,22,26,22,24,24,24,25,26,27,26,26,26,28,28,26,26,28,26,25,25,26,25,25,25,179.txt
29,30,29,21,22,23,21,21,21,21,29,19,19,29,23,21,21,21,21,21,23,24,23,23,23,22,24,23,23,24,23,22,22,23,22,22,22,182.txt
29,30,29,21,22,23,21,21,21,21,29,19,19,29,23,21,21,21,21,21,23,24,23,23,23,22,24,23,23,24,23,22,22,23,22,22,22,184.txt
29,30,29,21,22,23,21,21,21,21,29,19,19,29,23,21,21,21,21,21,23,24,23,23,23,22,24,23,23,24,23,22,22,23,22,22,22,188.txt
29,30,29,21,22,23,21,21,21,21,29,19,19,29,23,21,21,21,21,21,23,24,23,23,23,22,24,23,23,24,23,22,22,23,22,22,22,189.txt
22,12,24,28,29,28,26,26,26,26,23,20,20,25,25,24,23,23,23,24,25,26,25,25,25,24,27,25,25,27,25,24,24,25,24,24,24,191.txt
14,30,29,14,14,13,11,11,11,9,8,8,8,9,10,21,21,21,10,21,23,24,23,23,23,11,11,23,11,11,11,10,10,11,10,10,9,194.txt
29,30,29,21,22,23,21,21,21,21,29,19,19,29,23,21,21,21,21,21,23,24,23,23,23,22,24,23,23,24,23,22,22,23,22,22,22,197.txt
29,30,29,21,22,23,21,21,21,21,29,19,19,29,23,21,21,21,21,21,23,24,23,23,23,22,24,23,23,24,23,22,22,23,22,22,22,199.txt
29,30,29,21,22,23,21,21,21,21,29,19,19,29,23,21,21,21,21,21,23,24,23,23,23,22,24,23,23,24,23,22,22,23,22,22,22,203.txt
29,30,29,21,22,23,21,21,21,21,29,19,19,29,23,21,21,21,21,21,23,24,23,23,23,22,24,23,23,24,23,22,22,23,22,22,22,204.txt
0,30,26,20,21,21,18,18,18,18,18,19,19,24,24,23,22,22,22,23,24,25,24,24,24,23,26,24,24,26,24,23,23,24,23,23,23,209.txt
29,30,29,21,22,23,21,21,21,21,29,19,19,24,24,23,22,22,22,23,24,25,24,24,24,23,26,24,24,26,24,23,23,24,23,23,23,210.txt
29,30,29,21,22,23,21,21,21,21,29,19,19,29,23,21,21,21,21,21,23,24,23,23,23,22,24,23,23,24,23,22,22,23,22,22,22,212.txt
29,30,29,21,22,23,21,21,21,21,29,23,23,24,24,23,22,22,22,23,24,25,24,24,24,23,26,24,24,26,24,23,23,24,23,23,23,214.txt
14,17,28,29,30,30,28,25,25,25,22,22,22,29,13,21,21,21,21,21,23,24,23,23,23,22,24,23,23,24,23,22,22,23,22,22,22,217.txt
29,30,29,21,22,23,21,21,21,21,29,19,19,29,23,21,21,21,21,21,23,24,23,23,23,22,24,23,23,24,23,22,22,23,22,22,22,219.txt
29,30,29,21,22,23,21,21,21,21,29,19,19,29,23,21,21,21,21,21,23,24,23,23,23,22,24,23,23,24,23,22,22,23,22,22,22,220.txt
0,12,0,1,1,0,1,1,1,1,0,0,0,13,14,12,12,12,12,1,14,15,15,15,15,14,1,15,15,1,19,14,14,14,13,13,13,222.txt
29,30,29,21,22,23,21,21,21,21,29,19,19,29,23,21,21,21,21,21,23,24,23,23,23,22,24,23,23,24,23,22,22,23,22,22,22,225.txt
29,30,29,21,22,23,21,21,21,21,29,19,19,29,23,21,21,21,21,21,23,24,23,23,23,22,24,23,23,24,23,22,22,23,22,22,22,227.txt
22,12,19,13,28,29,27,27,27,27,17,20,20,23,26,22,24,24,24,25,26,27,26,26,26,28,28,26,26,28,26,25,25,26,25,25,25,229.txt
22,12,19,13,28,29,27,27,27,27,17,25,25,25,25,24,23,23,23,24,25,26,25,25,25,24,27,25,25,27,25,24,24,25,24,24,24,231.txt
29,30,29,21,22,23,21,21,21,21,29,19,19,29,23,21,21,21,21,21,23,24,23,23,23,22,24,23,23,24,23,22,22,23,22,22,22,236.txt
29,30,29,21,22,23,21,21,21,21,29,19,19,24,24,23,22,22,22,23,24,25,24,24,24,23,26,24,24,26,24,23,23,24,23,23,23,241.txt
29,30,29,21,22,23,21,21,21,21,29,19,19,29,23,21,21,21,21,21,23,24,23,23,23,22,24,23,23,24,23,22,22,23,22,22,22,242.txt
0,30,29,21,22,23,21,21,21,21,18,19,19,29,23,21,21,21,21,21,23,24,23,23,23,22,24,23,23,24,23,22,22,23,22,22,22,245.txt
0,12,0,0,0,0,0,0,30,30,0,0,0,13,14,12,0,0,0,0,0,0,0,0,0,0,0,0,0,0,0,0,0,0,0,0,0,247.txt
0,30,29,21,22,23,21,21,21,21,18,19,19,24,24,23,22,22,22,23,24,25,24,24,24,23,26,24,24,26,24,23,23,24,23,23,23,249.txt
29,30,29,21,22,23,21,21,21,21,29,19,19,29,23,21,21,21,21,21,23,24,23,23,23,22,24,23,23,24,23,22,22,23,22,22,22,250.txt
29,30,29,21,22,23,21,21,21,21,29,19,19,29,23,21,21,21,21,21,23,24,23,23,23,22,24,23,23,24,23,22,22,23,22,22,22,252.txt
22,12,19,13,28,29,27,27,27,27,17,20,20,25,25,24,23,23,23,24,25,26,25,25,25,24,27,25,25,27,25,24,24,25,24,24,24,256.txt
22,12,19,13,28,29,27,27,27,27,17,20,20,28,28,26,26,26,26,26,28,29,28,28,28,27,29,28,28,29,28,27,27,28,27,27,27,258.txt
29,30,29,21,22,23,21,21,21,21,29,19,19,29,23,21,21,21,21,21,23,24,23,23,23,22,24,23,23,24,23,22,22,23,22,22,22,260.txt
22,12,19,13,28,29,27,27,27,27,17,20,20,23,26,22,24,24,24,25,26,27,26,26,26,28,28,26,26,28,26,25,25,26,25,25,25,261.txt
29,30,29,21,22,23,21,21,21,21,29,19,19,29,23,21,21,21,21,21,23,24,23,23,23,22,24,23,23,24,23,22,22,23,22,22,22,264.txt
29,30,29,21,22,23,21,21,21,21,15,19,19,29,23,21,21,21,21,21,23,24,23,23,23,22,24,23,23,24,23,22,22,23,22,22,22,269.txt
29,30,29,21,22,23,21,21,21,21,29,19,19,29,23,21,21,21,21,21,23,24,23,23,23,22,24,23,23,24,23,22,22,23,22,22,22,272.txt
29,30,29,21,22,23,21,21,21,21,29,19,19,29,23,21,21,21,21,21,23,24,23,23,23,22,24,23,23,24,23,22,22,23,22,22,22,274.txt
22,12,19,13,28,29,27,27,27,27,17,20,20,25,25,24,23,23,23,24,25,26,25,25,25,24,27,25,25,27,25,24,24,25,24,24,24,276.txt
0,30,26,20,21,21,18,18,18,18,15,19,19,24,24,23,22,22,22,23,24,25,24,24,24,23,26,24,24,26,24,23,23,24,23,23,23,280.txt
29,30,29,21,22,23,21,21,21,21,29,19,19,29,23,21,21,21,21,21,23,24,23,23,23,22,24,23,23,24,23,22,22,23,22,22,22,282.txt
29,30,29,21,22,23,21,21,21,21,29,19,19,29,23,21,21,21,21,21,23,24,23,23,23,22,24,23,23,24,23,22,22,23,22,22,22,283.txt
29,30,29,21,22,23,21,21,21,21,29,19,19,24,24,23,22,22,22,23,24,25,24,24,24,23,26,24,24,26,24,23,23,24,23,23,23,284.txt
29,30,29,21,22,23,21,21,21,21,29,19,19,29,23,21,21,21,21,21,23,24,23,23,23,22,24,23,23,24,23,22,22,23,22,22,22,286.txt
0,30,29,21,22,23,21,21,21,21,18,19,19,29,23,21,21,21,21,21,23,24,23,23,23,22,24,23,23,24,23,22,22,23,22,22,22,288.txt
29,30,29,21,22,23,21,21,21,21,29,19,19,24,24,23,22,22,22,23,24,25,24,24,24,23,26,24,24,26,24,23,23,24,23,23,23,290.txt
0,30,26,20,21,21,18,18,18,18,18,19,19,29,23,21,21,21,21,21,23,24,23,23,23,22,24,23,23,24,23,22,22,23,22,22,22,293.txt
0,12,0,1,1,0,1,1,1,1,0,0,0,13,14,12,12,12,12,12,14,15,15,15,15,14,15,15,15,15,19,14,14,14,13,13,13,295.txt
1,23,5,21,22,23,21,21,21,21,29,19,19,29,23,21,21,21,21,21,23,24,23,23,23,22,24,23,23,24,23,22,22,23,22,22,22,297.txt
29,30,29,21,22,23,21,21,21,21,29,19,19,24,24,23,22,22,22,23,24,25,24,24,24,23,26,24,24,26,24,23,23,24,23,23,23,300.txt
29,12,14,8,8,23,21,21,21,21,29,19,19,28,27,25,25,25,25,22,27,28,27,27,27,26,25,27,27,25,27,26,26,27,26,26,26,303.txt
22,12,19,13,28,29,27,27,27,27,17,20,20,25,25,24,23,23,23,24,25,26,25,25,25,24,27,25,25,27,25,24,24,25,24,24,24,305.txt
29,30,29,21,22,23,21,21,21,21,29,19,19,24,24,23,22,22,22,23,24,25,24,24,24,23,26,24,24,26,24,23,23,24,23,23,23,307.txt
29,30,29,21,22,23,21,21,21,21,29,19,19,29,23,21,21,21,21,21,23,24,23,23,23,22,24,23,23,24,23,22,22,23,22,22,22,311.txt
22,12,19,13,28,29,27,27,27,27,17,20,20,30,26,22,24,24,24,25,26,27,26,26,26,28,28,26,26,28,26,25,25,26,25,25,25,313.txt
29,30,29,21,22,23,21,21,21,21,29,19,19,29,23,21,21,21,21,21,23,24,23,23,23,22,24,23,23,24,23,22,22,23,22,22,22,318.txt
29,30,29,21,22,23,21,21,21,21,29,19,19,29,23,21,21,21,21,21,23,24,23,23,23,22,24,23,23,24,23,22,22,23,22,22,22,320.txt
29,30,29,21,22,23,21,21,21,21,29,19,19,29,23,21,21,21,21,21,23,24,23,23,23,22,24,23,23,24,23,22,22,23,22,22,22,322.txt
29,30,29,21,22,23,21,21,21,21,29,19,19,29,23,21,21,21,21,21,23,24,23,23,23,22,24,23,23,24,23,22,22,23,22,22,22,323.txt
29,30,14,8,8,23,21,21,21,21,29,19,19,0,27,25,25,25,25,22,27,28,27,27,27,26,25,27,27,25,27,26,26,27,26,26,26,324.txt
29,30,29,21,22,23,21,21,21,21,29,23,23,24,24,23,22,22,22,23,24,25,24,24,24,23,26,24,24,26,24,23,23,24,23,23,23,326.txt
0,30,26,20,21,21,18,18,18,18,18,19,19,24,24,23,22,22,22,23,24,25,24,24,24,23,26,24,24,26,24,23,23,24,23,23,23,328.txt
29,30,29,21,22,23,21,21,21,21,15,23,23,29,23,21,21,21,21,21,23,24,23,23,23,22,24,23,23,24,23,22,22,23,22,22,22,329.txt
29,12,29,21,22,23,21,21,21,21,29,23,23,23,23,21,21,21,21,21,23,24,23,23,23,22,24,23,23,24,23,22,22,23,22,22,22,333.txt
22,12,19,13,28,29,27,27,27,27,17,20,20,28,28,26,26,26,26,26,28,29,28,28,28,27,29,28,28,29,28,27,27,28,27,27,27,335.txt
22,12,19,13,28,29,27,27,27,27,17,20,20,23,26,22,24,24,24,25,26,27,26,26,26,28,28,26,26,28,26,25,25,26,25,25,25,337.txt
0,30,10,0,0,4,0,0,30,30,18,19,19,24,24,2,0,0,0,0,0,0,0,0,0,0,0,0,0,0,0,0,0,0,0,0,0,341.txt
29,30,29,21,22,23,21,21,21,21,29,19,19,24,24,23,22,22,22,23,24,25,24,24,24,23,26,24,24,26,24,23,23,24,23,23,23,342.txt
29,30,29,21,22,23,21,21,21,21,29,19,19,29,23,21,21,21,21,21,23,24,23,23,23,22,24,23,23,24,23,22,22,23,22,22,22,344.txt
29,30,29,21,22,23,21,21,21,21,29,19,19,29,23,21,21,21,21,21,23,24,23,23,23,22,24,23,23,24,23,22,22,23,22,22,22,347.txt
0,30,26,20,21,21,18,18,18,18,18,23,23,24,24,23,22,22,22,23,24,25,24,24,24,23,26,24,24,26,24,23,23,24,23,23,23,349.txt
0,12,0,1,1,0,1,1,1,1,0,17,17,13,14,12,12,12,12,12,14,15,15,15,15,14,15,15,15,15,19,14,14,14,13,13,13,352.txt
29,30,29,21,22,23,21,21,21,21,29,19,19,29,23,21,21,21,21,21,23,24,23,23,23,22,24,23,23,24,23,22,22,23,22,22,22,354.txt
29,30,29,21,22,23,21,21,21,21,29,19,19,24,24,23,22,22,22,23,24,25,24,24,24,23,26,24,24,26,24,23,23,24,23,23,23,358.txt
29,30,29,21,22,23,21,21,21,21,29,28,28,29,23,21,21,21,21,21,23,24,23,23,23,22,24,23,23,24,23,22,22,23,22,22,22,360.txt
29,30,29,21,22,23,21,21,21,21,29,19,19,24,24,23,22,22,22,23,24,25,24,24,24,23,26,24,24,26,24,23,23,24,23,23,23,362.txt
29,30,29,21,22,23,21,21,21,21,29,23,23,29,23,21,21,21,21,21,23,24,23,23,23,22,24,23,23,24,23,22,22,23,22,22,22,364.txt
22,12,19,13,28,29,27,27,27,27,17,20,20,23,26,22,24,24,24,25,26,27,26,26,26,28,28,26,26,28,26,25,25,26,25,25,25,365.txt
29,30,29,21,22,23,21,21,21,21,29,19,19,29,23,21,21,21,21,21,23,24,23,23,23,22,24,23,23,24,23,22,22,23,22,22,22,368.txt
29,30,29,21,22,23,21,21,21,21,29,19,19,29,23,21,21,21,21,21,23,24,23,23,23,22,24,23,23,24,23,22,22,23,22,22,22,369.txt
22,12,19,13,28,29,27,27,27,27,17,20,20,28,28,26,26,26,26,26,28,29,28,28,28,27,29,28,28,29,28,27,27,28,27,27,27,371.txt
1,30,29,21,22,23,21,21,21,21,29,19,19,29,23,21,21,21,21,21,23,24,23,23,23,22,24,23,23,24,23,22,22,23,22,22,22,375.txt
0,30,26,20,21,21,18,18,18,18,18,19,19,24,24,23,22,22,22,23,24,25,24,24,24,23,26,24,24,26,24,23,23,24,23,23,23,377.txt
22,30,19,13,28,29,27,27,27,27,17,20,20,29,26,22,24,24,24,25,26,27,26,26,26,28,28,26,26,28,26,25,25,26,25,25,25,380.txt
20,30,21,17,18,13,11,11,11,14,10,11,10,12,23,21,21,21,21,21,13,14,14,14,14,12,14,14,14,13,12,12,11,12,12,12,11,382.txt
22,12,19,13,28,29,27,27,27,27,17,20,20,25,25,24,23,23,23,24,25,26,25,25,25,24,27,25,25,27,25,24,24,25,24,24,24,385.txt
0,24,26,20,21,21,18,18,18,9,18,19,19,29,13,21,21,21,21,21,23,24,23,23,23,11,24,23,23,24,23,22,22,23,22,22,22,386.txt
29,30,29,21,22,23,21,21,21,21,29,19,19,29,23,21,21,21,21,21,23,24,23,23,23,22,24,23,23,24,23,22,22,23,22,22,22,387.txt
29,30,29,21,22,23,21,21,21,21,29,23,23,29,23,21,21,21,21,21,23,24,23,23,23,22,24,23,23,24,23,22,22,23,22,22,22,391.txt
0,12,0,1,1,0,1,1,1,1,0,17,17,13,14,12,12,12,12,12,14,15,15,15,15,14,15,15,15,15,19,14,14,14,13,13,13,394.txt
0,12,0,1,1,0,1,1,1,1,0,0,0,13,14,12,12,12,12,12,14,15,15,15,15,14,15,15,15,15,19,14,14,14,13,13,13,395.txt
29,30,29,21,22,23,21,21,21,21,29,19,19,22,23,21,21,21,21,21,23,24,23,23,23,22,24,23,23,24,23,22,22,23,22,22,22,397.txt
29,30,14,8,8,23,21,21,21,21,15,19,19,26,27,25,25,25,25,22,27,28,27,27,27,26,25,27,27,25,27,26,26,27,26,26,26,400.txt
29,30,29,21,22,23,21,21,21,21,29,23,23,29,23,21,21,21,21,21,23,24,23,23,23,22,24,23,23,24,23,22,22,23,22,22,22,402.txt
29,30,29,21,22,23,21,21,21,21,29,19,19,29,23,21,21,21,21,21,23,24,23,23,23,22,24,23,23,24,23,22,22,23,22,22,22,405.txt
29,30,29,21,22,23,21,21,21,21,29,19,19,29,23,21,21,21,21,21,23,24,23,23,23,22,24,23,23,24,23,22,22,23,22,22,22,407.txt
0,30,0,1,1,0,1,1,1,1,0,0,0,24,14,12,12,12,12,12,14,15,15,15,15,14,15,15,15,15,19,14,14,14,13,13,13,411.txt
29,30,29,21,22,23,21,21,21,21,29,19,19,29,23,21,21,21,21,21,23,24,23,23,23,22,24,23,23,24,23,22,22,23,22,22,22,413.txt
22,12,19,13,28,29,27,27,27,27,17,20,20,28,28,26,26,26,26,26,28,29,28,28,28,27,29,28,28,29,28,27,27,28,27,27,27,416.txt
0,30,29,21,22,23,21,21,21,21,18,23,23,29,23,21,21,21,21,21,23,24,23,23,23,22,24,23,23,24,23,22,22,23,22,22,22,417.txt
29,30,29,21,22,23,21,21,21,21,29,19,19,29,23,21,21,21,21,21,23,24,23,23,23,22,24,23,23,24,23,22,22,23,22,22,22,419.txt
30,30,25,19,20,22,19,19,19,19,12,14,14,15,15,14,13,14,13,13,16,17,16,16,16,15,17,16,16,17,16,15,15,15,14,14,14,421.txt
29,30,29,21,22,23,21,21,21,21,29,19,19,29,23,21,21,21,21,21,23,24,23,23,23,22,24,23,23,24,23,22,22,23,22,22,22,423.txt
29,30,29,21,22,23,21,21,21,21,29,19,19,29,23,21,21,21,21,21,23,24,23,23,23,22,24,23,23,24,23,22,22,23,22,22,22,425.txt
29,30,29,21,22,23,21,21,21,21,29,19,19,29,23,21,21,21,21,21,23,24,23,23,23,22,24,23,23,24,23,22,22,23,22,22,22,427.txt
22,12,19,13,28,29,27,27,27,27,17,20,20,23,26,22,24,24,24,25,26,27,26,26,26,28,28,26,26,28,26,25,25,26,25,25,25,430.txt
22,12,19,13,28,29,27,27,27,27,17,20,20,25,25,24,23,23,23,24,25,26,25,25,25,24,27,25,25,27,25,24,24,25,24,24,24,434.txt
29,30,29,21,22,23,21,21,21,21,29,19,19,24,24,23,22,22,22,23,24,25,24,24,24,23,26,24,24,26,24,23,23,24,23,23,23,436.txt
22,12,19,13,28,29,27,27,27,27,17,20,20,23,26,22,24,24,24,25,26,27,26,26,26,28,28,26,26,28,26,25,25,26,25,25,25,439.txt
29,30,29,21,22,23,21,21,21,21,29,19,19,29,23,21,21,21,21,21,23,24,23,23,23,22,24,23,23,24,23,22,22,23,22,22,22,444.txt
29,30,29,21,22,23,21,21,21,21,29,19,19,24,24,23,22,22,22,23,24,25,24,24,24,23,26,24,24,26,24,23,23,24,23,23,23,447.txt
29,30,29,21,22,23,21,21,21,21,29,19,19,29,23,21,21,21,21,21,23,24,23,23,23,22,24,23,23,24,23,22,22,23,22,22,22,449.txt
29,30,29,21,22,23,21,21,21,21,29,23,23,29,23,21,21,21,21,21,23,24,23,23,23,22,24,23,23,24,23,22,22,23,22,22,22,452.txt
0,30,26,20,21,21,18,18,18,18,18,23,23,24,24,23,22,22,22,23,24,25,24,24,24,23,26,24,24,26,24,23,23,24,23,23,23,454.txt
0,13,0,1,1,0,1,1,1,1,0,0,0,13,14,12,12,12,12,12,14,15,15,15,15,14,15,15,15,15,19,14,14,14,13,13,13,456.txt
22,12,19,13,28,29,27,27,27,27,17,20,20,23,26,22,24,24,24,25,26,27,26,26,26,28,28,26,26,28,26,25,25,26,25,25,25,458.txt
29,30,29,21,22,23,21,21,21,21,29,19,19,29,23,21,21,21,21,21,23,24,23,23,23,22,24,23,23,24,23,22,22,23,22,22,22,460.txt
29,30,29,21,22,23,21,21,21,21,29,19,19,29,23,21,21,21,21,21,23,24,23,23,23,22,24,23,23,24,23,22,22,23,22,22,22,463.txt
22,12,19,13,28,29,27,27,27,27,17,20,20,25,25,24,23,23,23,24,25,26,25,25,25,24,27,25,25,27,25,24,24,25,24,24,24,465.txt
22,12,24,28,29,28,26,26,26,26,23,20,20,25,25,24,23,23,23,24,25,26,25,25,25,24,27,25,25,27,25,24,24,25,24,24,24,469.txt
29,30,29,21,22,23,21,21,21,21,29,19,19,24,24,23,22,22,22,23,24,25,24,24,24,23,26,24,24,26,24,23,23,24,23,23,23,472.txt
0,30,29,21,22,23,21,21,21,21,18,19,19,29,23,21,21,21,21,21,23,24,23,23,23,22,24,23,23,24,23,22,22,23,22,22,22,473.txt
0,12,0,0,0,0,0,0,30,30,0,0,0,13,14,12,0,0,0,0,0,0,0,0,0,0,0,0,0,0,0,0,0,0,0,0,0,475.txt
22,12,19,13,28,29,27,27,27,27,17,20,20,25,25,24,23,23,23,24,25,26,25,25,25,24,27,25,25,27,25,24,24,25,24,24,24,477.txt
29,12,29,21,22,23,21,21,21,21,29,19,19,30,23,21,21,21,21,21,23,24,23,23,23,22,24,23,23,24,23,22,22,23,22,22,22,479.txt
29,30,29,21,22,23,21,21,21,21,29,19,19,29,23,21,21,21,21,21,23,24,23,23,23,22,24,23,23,24,23,22,22,23,22,22,22,481.txt
29,30,29,21,22,23,21,21,21,21,29,19,19,24,24,23,22,22,22,23,24,25,24,24,24,23,26,24,24,26,24,23,23,24,23,23,23,485.txt
29,30,14,8,8,23,21,21,21,21,15,27,26,26,27,25,25,25,25,22,27,28,27,27,27,26,25,27,27,25,27,26,26,27,26,26,26,487.txt
0,12,26,20,21,21,18,18,18,18,18,19,19,13,24,23,22,22,22,23,24,25,24,24,24,23,26,24,24,26,24,23,23,24,23,23,23,488.txt
29,30,29,21,22,23,21,21,21,21,29,19,19,29,23,21,21,21,21,21,23,24,23,23,23,22,24,23,23,24,23,22,22,23,22,22,22,491.txt
0,12,0,1,1,0,1,1,1,1,0,0,0,16,17,15,15,15,15,1,17,18,17,17,17,16,1,17,17,1,17,16,16,17,16,15,15,492.txt
22,12,19,13,28,29,27,27,27,27,17,20,20,23,26,22,24,24,24,25,26,27,26,26,26,28,28,26,26,28,26,25,25,26,25,25,25,494.txt
29,30,29,0,0,23,0,0,30,30,29,19,19,24,24,23,0,0,0,0,0,0,0,0,0,0,0,0,0,0,0,0,0,0,0,0,0,496.txt
22,12,19,13,28,29,27,27,27,27,17,20,20,30,26,22,24,24,24,25,26,27,26,26,26,28,28,26,26,28,26,25,25,26,25,25,25,498.txt
0,12,0,1,1,0,1,1,1,1,0,0,0,13,14,12,12,12,12,12,14,15,15,15,15,14,15,15,15,15,19,14,14,14,13,13,13,500.txt
29,30,29,21,22,23,21,21,21,21,29,19,19,24,24,23,22,22,22,23,24,25,24,24,24,23,26,24,24,26,24,23,23,24,23,23,23,502.txt
29,30,29,21,22,23,21,21,21,21,29,19,19,29,23,21,21,21,21,21,23,24,23,23,23,22,24,23,23,24,23,22,22,23,22,22,22,503.txt
29,13,29,21,22,23,21,21,21,21,15,19,19,29,23,21,21,21,21,21,23,24,23,23,23,22,24,23,23,24,23,22,22,23,22,22,22,505.txt
29,30,29,21,22,23,21,21,21,21,29,19,19,29,23,21,21,21,21,21,23,24,23,23,23,22,24,23,23,24,23,22,22,23,22,22,22,507.txt
29,30,29,21,22,23,21,21,21,21,29,19,19,29,23,21,21,21,21,21,23,24,23,23,23,22,24,23,23,24,23,22,22,23,22,22,22,510.txt
29,30,29,21,22,23,21,21,21,21,29,19,19,29,23,21,21,21,21,21,23,24,23,23,23,22,24,23,23,24,23,22,22,23,22,22,22,513.txt
29,30,29,21,22,23,21,21,21,21,29,19,19,29,23,21,21,21,21,21,23,24,23,23,23,22,24,23,23,24,23,22,22,23,22,22,22,516.txt
24,30,29,21,22,23,21,21,21,21,18,23,23,24,24,23,22,22,22,23,24,25,24,24,24,23,26,24,24,26,24,23,23,24,23,23,23,518.txt
29,17,7,29,30,30,28,25,25,25,22,28,28,29,23,21,21,21,21,21,23,24,23,23,23,22,24,23,23,24,23,22,22,23,22,22,22,521.txt
29,14,8,3,3,5,3,30,29,28,30,1,1,1,30,3,3,3,3,3,3,3,3,3,3,29,3,3,3,3,3,30,30,3,30,30,30,524.txt
29,30,18,12,12,23,21,21,21,21,26,30,30,7,7,29,29,29,29,29,8,10,9,10,9,26,10,9,9,8,8,7,7,8,8,7,7,527.txt
0,12,0,1,1,0,1,1,1,1,0,0,0,0,0,0,1,1,1,1,1,1,1,1,1,1,1,1,1,1,1,1,1,1,1,1,1,529.txt
0,30,26,20,21,21,18,18,18,18,18,19,19,29,23,21,21,21,21,21,23,24,23,23,23,22,24,23,23,24,23,22,22,23,22,22,22,530.txt
29,30,29,21,22,23,21,21,21,21,29,19,19,24,24,23,22,22,22,23,24,25,24,24,24,23,26,24,24,26,24,23,23,24,23,23,23,532.txt
22,12,19,13,28,29,27,27,27,27,17,20,20,25,25,24,23,23,23,24,25,26,25,25,25,24,27,25,25,27,25,24,24,25,24,24,24,534.txt
29,30,29,21,22,23,21,21,21,21,29,19,19,29,23,21,21,21,21,21,23,24,23,23,23,22,24,23,23,24,23,22,22,23,22,22,22,536.txt
29,30,29,21,22,23,21,21,21,21,29,19,19,29,23,21,21,21,21,21,23,24,23,23,23,22,24,23,23,24,23,22,22,23,22,22,22,538.txt
29,30,29,21,22,23,21,21,21,21,29,23,23,24,24,23,22,22,22,23,24,25,24,24,24,23,26,24,24,26,15,23,23,24,23,23,23,541.txt
29,30,29,21,22,23,21,21,21,21,29,19,19,29,23,21,21,21,21,21,23,24,23,23,23,22,24,23,23,24,23,22,22,23,22,22,22,543.txt
22,12,19,13,28,29,27,27,27,27,17,20,20,25,25,24,23,23,23,24,25,26,25,25,25,24,27,25,25,27,25,24,24,25,24,24,24,545.txt
29,30,29,21,22,23,21,21,21,21,29,19,19,29,23,21,21,21,21,21,23,24,23,23,23,22,24,23,23,24,23,22,22,23,22,22,22,549.txt
29,30,29,21,22,23,21,21,21,21,29,19,19,24,24,23,22,22,22,23,24,25,24,24,24,23,26,24,24,26,24,23,23,24,23,23,23,551.txt
29,30,29,21,22,23,21,21,21,21,29,19,19,29,23,21,21,21,21,21,23,24,23,23,23,22,24,23,23,24,23,22,22,23,22,22,22,554.txt
0,12,0,1,1,0,1,1,1,1,0,0,0,16,17,15,15,15,15,15,17,18,17,17,17,16,18,17,17,18,17,16,16,17,16,15,15,557.txt
29,30,29,21,22,23,21,21,21,21,29,19,19,29,23,21,21,21,21,21,23,24,23,23,23,22,24,23,23,24,23,22,22,23,22,22,22,558.txt
22,12,19,13,28,29,27,27,27,27,17,24,24,23,26,22,24,24,24,25,26,27,26,26,26,28,28,26,26,28,26,25,25,26,25,25,25,561.txt
16,22,9,2,2,3,2,2,2,2,29,19,19,24,24,1,2,2,2,2,2,2,2,2,2,2,2,2,2,2,2,2,2,2,2,2,2,564.txt
0,30,26,20,21,21,18,18,18,18,18,19,19,24,24,23,22,22,22,23,24,25,24,24,24,23,26,24,24,26,24,23,23,24,23,23,23,566.txt
0,12,26,20,21,21,18,18,18,18,15,19,19,13,24,23,22,22,22,23,24,25,24,24,24,23,26,24,24,26,24,23,23,24,23,23,23,568.txt
0,30,26,20,21,21,18,18,18,18,18,19,19,29,23,21,21,21,21,21,23,24,23,23,23,22,24,23,23,24,23,22,22,23,22,22,22,572.txt
29,30,29,21,22,23,21,21,21,21,15,28,28,29,23,21,21,21,21,21,23,24,23,23,23,22,24,23,23,24,23,22,22,23,22,22,22,574.txt
29,30,29,21,22,23,21,21,21,21,29,19,19,29,23,21,21,21,21,21,23,24,23,23,23,22,24,23,23,24,23,22,22,23,22,22,22,576.txt
29,30,29,21,22,23,21,21,21,21,29,19,19,22,23,21,21,21,21,21,23,24,23,23,23,22,24,23,23,24,23,22,22,23,22,22,22,578.txt
29,30,29,21,22,23,21,21,21,21,29,19,19,29,23,21,21,21,21,21,23,24,23,23,23,22,24,23,23,24,23,22,22,23,22,22,22,580.txt
0,12,0,1,1,0,1,1,1,1,0,0,0,16,17,15,15,15,15,15,17,18,17,17,17,16,18,17,17,18,17,16,16,17,16,15,15,582.txt
29,30,29,21,22,23,21,21,21,21,29,19,19,29,23,21,21,21,21,21,23,24,23,23,23,22,24,23,23,24,23,22,22,23,22,22,22,584.txt
29,30,29,21,22,23,21,21,21,21,15,19,19,24,24,23,22,22,22,23,24,25,24,24,24,23,26,24,24,26,24,23,23,24,23,23,23,586.txt
29,12,29,21,22,23,21,21,21,21,29,19,19,23,23,21,21,21,21,21,23,24,23,23,23,22,24,23,23,24,23,22,22,23,22,22,22,588.txt
29,30,29,21,22,23,21,21,21,21,29,19,19,29,23,21,21,21,21,21,23,24,23,23,23,22,24,23,23,24,23,22,22,23,22,22,22,591.txt
29,30,29,21,22,23,21,21,21,21,15,19,19,29,23,21,21,21,21,21,23,24,23,23,23,22,24,23,23,24,23,22,22,23,22,22,22,594.txt
29,30,29,21,22,23,21,21,21,21,29,19,19,29,23,21,21,21,21,21,23,24,23,23,23,22,24,23,23,24,23,22,22,23,22,22,22,596.txt
29,30,29,21,22,23,21,21,21,21,29,19,19,29,23,21,21,21,21,21,23,24,23,23,23,22,24,23,23,24,23,22,22,23,22,22,22,598.txt
29,30,29,21,22,23,21,21,21,21,29,19,19,29,23,21,21,21,21,21,23,24,23,23,23,22,24,23,23,24,23,22,22,23,22,22,22,600.txt
29,30,29,21,22,23,21,21,21,21,29,19,19,29,23,21,21,21,21,21,23,24,23,23,23,22,24,23,23,24,23,22,22,23,22,22,22,603.txt
0,30,29,21,22,23,21,21,21,21,18,28,28,21,22,23,19,20,19,19,21,23,22,22,21,30,22,21,22,23,21,20,21,21,21,20,19,604.txt
29,30,29,21,22,23,21,21,21,21,15,19,19,29,23,21,21,21,21,22,23,24,23,23,23,22,25,23,23,25,23,22,22,23,22,22,22,606.txt
29,30,29,21,22,23,21,21,21,21,29,19,19,29,23,21,21,21,21,21,23,24,23,23,23,22,24,23,23,24,23,22,22,23,22,22,22,607.txt
29,12,29,21,22,23,21,21,21,21,29,19,19,30,23,21,21,21,21,21,23,24,23,23,23,22,24,23,23,24,23,22,22,23,22,22,22,613.txt
29,30,29,21,22,23,21,21,21,21,29,19,19,29,23,21,21,21,21,21,23,24,23,23,23,22,24,23,23,24,23,22,22,23,22,22,22,615.txt
29,30,29,21,22,23,21,21,21,21,29,19,19,29,23,21,21,21,21,21,23,24,23,23,23,22,24,23,23,24,23,22,22,23,22,22,22,618.txt
29,30,29,21,22,23,21,21,21,21,29,23,23,29,23,21,21,21,21,21,23,24,23,23,23,22,24,23,23,24,23,22,22,23,22,22,22,621.txt
22,12,19,13,28,29,27,27,27,27,17,24,24,25,25,24,23,23,23,24,25,26,25,25,25,24,27,25,25,27,25,24,24,25,24,24,24,623.txt
29,30,29,21,22,23,21,21,21,21,29,19,19,29,23,21,21,21,21,21,23,24,23,23,23,22,24,23,23,24,23,22,22,23,22,22,22,624.txt
29,30,29,21,22,23,21,21,21,21,29,19,19,29,23,21,21,21,21,21,23,24,23,23,23,22,24,23,23,24,23,22,22,23,22,22,22,627.txt
29,30,29,21,22,23,21,21,21,21,29,19,19,29,23,21,21,21,21,21,23,24,23,23,23,22,24,23,23,24,23,22,22,23,22,22,22,628.txt
22,12,19,13,28,29,27,27,27,27,17,20,20,23,26,22,24,24,24,25,26,27,26,26,26,28,28,26,26,28,26,25,25,26,25,25,25,629.txt
29,30,29,21,22,23,21,21,21,21,29,19,19,29,23,21,21,21,21,21,23,24,23,23,23,22,24,23,23,24,23,22,22,23,22,22,22,631.txt
29,30,29,21,22,23,21,21,21,21,29,19,19,29,23,21,21,21,21,21,23,24,23,23,23,22,24,23,23,24,23,22,22,23,22,22,22,633.txt
29,30,29,21,22,23,21,21,21,21,29,19,19,29,23,21,21,21,21,21,23,24,23,23,23,22,24,23,23,24,23,22,22,23,22,22,22,635.txt
29,30,29,21,22,23,21,21,21,21,29,19,19,29,23,21,21,21,21,21,23,24,23,23,23,22,24,23,23,24,23,22,22,23,22,22,22,637.txt
29,30,29,21,22,23,21,21,21,21,29,19,19,29,23,21,21,21,21,21,23,24,23,23,23,22,24,23,23,24,23,22,22,23,22,22,22,642.txt
22,12,19,13,28,29,27,27,27,27,17,24,24,23,26,22,24,24,24,25,26,27,26,26,26,28,28,26,26,28,26,25,25,26,25,25,25,645.txt
14,30,29,21,22,23,21,21,21,21,29,19,19,29,13,21,21,21,21,21,23,24,23,23,23,22,24,23,23,24,23,22,22,23,22,22,22,647.txt
29,30,29,21,22,23,21,21,21,21,29,23,23,29,23,21,21,21,21,21,23,24,23,23,23,22,24,23,23,24,23,22,22,23,22,22,22,650.txt
0,30,29,21,22,23,21,21,21,21,18,19,19,24,24,23,22,22,22,23,24,25,24,24,24,23,26,24,24,26,24,23,23,24,23,23,23,652.txt
22,12,19,13,28,29,27,27,27,27,17,20,20,23,26,22,24,24,24,25,26,27,26,26,26,28,28,26,26,28,26,25,25,26,25,25,25,654.txt
0,30,26,20,21,21,18,18,18,18,18,19,19,24,24,23,22,22,22,23,24,25,24,24,24,23,26,24,24,26,24,23,23,24,23,23,23,657.txt
29,30,29,21,22,23,21,21,21,21,29,19,19,29,23,21,21,21,21,21,23,24,23,23,23,22,24,23,23,24,23,22,22,23,22,22,22,658.txt
29,30,29,21,22,23,21,21,21,21,29,19,19,29,23,21,21,21,21,21,23,24,23,23,23,22,24,23,23,24,23,22,22,23,22,22,22,662.txt
29,30,29,21,22,23,21,21,21,21,29,19,19,29,23,21,21,21,21,21,23,24,23,23,23,22,24,23,23,24,23,22,22,23,22,22,22,663.txt
29,30,29,21,22,23,21,21,21,21,29,19,19,29,23,21,21,21,21,21,23,24,23,23,23,22,24,23,23,24,23,22,22,23,22,22,22,665.txt
29,30,29,21,22,23,21,21,21,21,29,19,19,29,23,21,21,21,21,21,23,24,23,23,23,22,24,23,23,24,23,22,22,23,22,22,22,669.txt
29,30,29,21,22,23,21,21,21,21,29,23,23,29,23,21,21,21,21,21,23,24,23,23,23,22,24,23,23,24,23,22,22,23,22,22,22,671.txt
29,30,29,21,22,23,21,21,21,21,29,23,23,24,24,23,22,22,22,23,24,25,24,24,24,23,26,24,24,26,24,23,23,24,23,23,23,673.txt
22,12,19,13,28,29,27,27,27,27,17,20,20,25,25,24,23,23,23,24,25,26,25,25,25,24,27,25,25,27,25,24,24,25,24,24,24,675.txt
22,12,19,10,28,29,27,27,27,27,17,20,20,25,25,24,23,23,23,24,25,26,25,25,25,24,27,25,25,27,25,24,24,25,24,24,24,678.txt
22,12,19,13,28,29,27,27,27,27,17,20,20,25,25,24,23,23,23,24,25,26,25,25,25,24,27,25,25,27,25,24,24,25,24,24,24,680.txt
22,12,19,13,28,29,27,27,27,27,17,20,20,23,26,22,24,24,24,25,26,27,26,26,26,28,28,26,26,28,26,25,25,26,25,25,25,683.txt
29,30,29,21,22,23,21,21,21,21,29,19,19,29,23,21,21,21,21,21,23,24,23,23,23,22,24,23,23,24,23,22,22,23,22,22,22,685.txt
29,12,29,21,22,23,21,21,21,21,29,19,19,23,23,21,21,21,21,21,23,24,23,23,23,22,24,23,23,24,23,22,22,23,22,22,22,687.txt
29,12,29,21,22,23,21,21,21,21,29,19,19,30,23,21,21,21,21,21,23,24,23,23,23,22,24,23,23,24,23,22,22,23,22,22,22,689.txt
29,30,29,21,22,23,21,21,21,21,29,19,19,29,23,21,21,21,21,21,23,24,23,23,23,22,24,23,23,24,23,22,22,23,22,22,22,691.txt
29,30,29,21,22,23,21,21,21,21,29,19,19,29,23,21,21,21,21,21,23,24,23,23,23,22,24,23,23,24,23,22,22,23,22,22,22,695.txt
0,13,0,1,1,0,1,1,1,1,0,0,0,13,14,12,12,12,12,12,14,15,15,15,15,14,15,15,15,15,19,14,14,14,13,13,13,696.txt
22,14,8,3,3,5,3,3,3,3,1,1,1,1,1,3,3,3,3,3,3,3,3,3,3,3,3,3,3,3,3,3,3,3,3,3,3,700.txt
29,30,29,21,22,23,21,21,21,21,29,19,19,29,23,21,21,21,21,21,23,24,23,23,23,22,24,23,23,24,23,22,22,23,22,22,22,703.txt
0,30,29,21,22,23,21,21,21,21,18,19,19,29,23,21,21,21,21,21,23,24,23,23,23,22,24,23,23,24,23,22,22,23,22,22,22,705.txt
0,12,0,1,1,0,1,1,1,1,0,0,0,16,17,15,15,15,15,15,17,18,17,17,17,16,18,17,17,18,17,16,16,17,16,15,15,706.txt
0,12,0,0,0,0,0,0,30,30,0,0,0,13,14,12,0,0,0,0,0,0,0,0,0,0,0,0,0,0,0,0,0,0,0,0,0,709.txt
29,30,29,21,22,23,21,21,21,21,29,19,19,24,24,23,22,22,22,23,24,25,24,24,24,23,26,24,24,26,24,23,23,24,23,23,23,711.txt
29,30,29,21,22,23,21,21,21,21,29,19,19,29,23,21,21,21,21,21,23,24,23,23,23,22,24,23,23,24,23,22,22,23,22,22,22,712.txt
29,30,29,21,22,23,21,21,21,21,29,19,19,29,23,21,21,21,21,21,23,24,23,23,23,22,24,23,23,24,23,22,22,23,22,22,22,713.txt
29,30,29,21,22,23,21,21,21,21,29,19,19,29,23,21,21,21,21,21,23,24,23,23,23,22,24,23,23,24,23,22,22,23,22,22,22,716.txt
0,12,0,0,0,0,0,0,30,30,0,0,0,13,14,12,0,0,0,0,0,0,0,0,0,0,0,0,0,0,0,0,0,0,0,0,0,722.txt
29,30,29,21,22,23,21,21,21,21,29,23,23,29,23,21,21,21,21,21,23,24,23,23,23,22,24,23,23,24,23,22,22,23,22,22,22,724.txt
29,30,29,21,22,23,21,21,21,21,29,19,19,29,23,21,21,21,21,21,23,24,23,23,23,22,24,23,23,24,23,22,22,23,22,22,22,727.txt
0,30,29,21,22,23,21,21,21,21,18,19,19,24,24,23,22,22,22,23,24,25,24,24,24,23,26,24,24,26,24,23,23,24,23,23,23,728.txt
29,30,29,21,22,23,21,21,21,21,29,19,19,22,23,21,21,21,21,21,23,24,23,23,23,22,24,23,23,24,23,22,22,23,22,22,22,732.txt
29,30,29,21,22,23,21,21,21,21,29,19,19,29,23,21,21,21,21,21,23,24,23,23,23,22,24,23,23,24,23,22,22,23,22,22,22,734.txt
29,30,14,8,8,23,21,21,21,21,29,19,19,26,27,25,25,25,25,22,27,28,27,27,27,26,25,27,27,25,27,26,26,27,26,26,26,735.txt
29,30,29,21,22,23,21,21,21,21,29,19,19,29,23,21,21,21,21,21,23,24,23,23,23,22,24,23,23,24,23,22,22,23,22,22,22,737.txt
22,12,19,13,28,29,27,27,27,27,17,20,20,23,26,22,24,24,24,25,26,27,26,26,26,28,28,26,26,28,26,25,25,26,25,25,25,738.txt
22,30,24,28,29,28,26,26,26,26,23,20,20,22,26,22,24,24,24,25,26,27,26,26,26,28,28,26,26,28,26,25,25,26,25,25,25,741.txt
0,30,26,20,21,21,18,18,18,18,18,23,23,24,24,23,22,22,22,23,24,25,24,24,24,23,26,24,24,26,24,23,23,24,23,23,23,743.txt
0,12,0,1,1,0,1,1,1,1,0,0,0,13,14,12,12,12,12,12,14,15,15,15,15,14,15,15,15,15,19,14,14,14,13,13,13,747.txt
29,30,29,21,22,23,21,21,21,21,29,19,19,24,24,23,22,22,22,23,24,25,24,24,24,23,26,24,24,26,24,23,23,24,23,23,23,748.txt
29,12,29,21,22,23,21,21,21,21,29,23,23,30,23,21,21,21,21,21,23,24,23,23,23,22,24,23,23,24,23,22,22,23,22,22,22,751.txt
29,19,29,21,22,23,21,21,21,21,29,23,23,29,23,21,21,21,21,21,23,24,23,23,23,22,24,23,23,24,23,22,22,23,22,22,22,755.txt
0,30,26,20,21,21,18,18,18,18,18,19,19,24,24,23,22,22,22,23,24,25,24,24,24,23,26,24,24,26,24,23,23,24,23,23,23,756.txt
29,30,29,21,22,23,21,21,21,21,29,23,23,29,23,21,21,21,21,21,23,24,23,23,23,22,24,23,23,24,23,22,22,23,22,22,22,760.txt
29,30,29,21,22,23,21,21,21,21,29,23,23,29,23,21,21,21,21,21,23,24,23,23,23,22,24,23,23,24,23,22,22,23,22,22,22,765.txt
29,30,29,21,22,23,21,21,21,21,29,19,19,22,23,21,21,21,21,21,23,24,23,23,23,22,24,23,23,24,23,22,22,23,22,22,22,766.txt
22,12,19,13,28,29,27,27,27,27,17,25,25,23,26,22,24,24,24,25,26,27,26,26,26,28,28,26,26,28,26,25,25,26,25,25,25,768.txt
0,12,0,0,0,0,0,0,30,30,0,13,13,13,14,12,0,0,0,0,0,0,0,0,0,0,0,0,0,0,0,0,0,0,0,0,0,771.txt
29,30,29,21,22,23,21,21,21,21,15,23,26,29,23,21,21,21,21,22,23,24,23,23,23,22,25,23,23,25,23,22,22,23,22,22,22,772.txt
29,30,29,21,22,23,21,21,21,21,15,19,19,29,23,21,21,21,21,21,23,24,23,23,23,22,24,23,23,24,23,22,22,23,22,22,22,773.txt
0,12,0,1,1,0,1,1,1,1,0,0,0,13,14,12,12,12,12,12,14,15,15,15,15,14,15,15,15,15,19,14,14,14,13,13,13,775.txt
22,12,19,13,28,29,27,27,27,27,17,20,20,27,26,22,24,24,24,25,26,27,26,26,26,28,28,26,26,28,26,25,25,26,25,25,25,777.txt
0,30,29,21,22,23,21,21,21,21,18,19,19,29,23,21,21,21,21,21,23,24,23,23,23,22,24,23,23,24,23,22,22,23,22,22,22,779.txt
29,30,29,21,22,23,21,21,21,21,29,19,19,29,23,21,21,21,21,21,23,24,23,23,23,22,24,23,23,24,23,22,22,23,22,22,22,781.txt
29,30,29,21,22,23,21,21,21,21,29,19,19,29,23,21,21,21,21,21,23,24,23,23,23,22,24,23,23,24,23,22,22,23,22,22,22,785.txt
22,12,19,13,28,29,27,27,27,27,17,20,20,23,26,22,24,24,24,25,26,27,26,26,26,28,28,26,26,28,26,25,25,26,25,25,25,787.txt
0,30,29,21,22,23,21,21,21,21,18,19,19,29,23,21,21,21,21,21,23,24,23,23,23,22,24,23,23,24,23,22,22,23,22,22,22,790.txt
0,30,26,20,21,21,18,18,18,18,18,19,19,29,23,21,21,21,21,21,23,24,23,23,23,22,24,23,23,24,23,22,22,23,22,22,22,792.txt
29,30,29,21,22,23,21,21,21,21,29,19,19,24,24,23,22,22,22,23,24,25,24,24,24,23,26,24,24,26,24,23,23,24,23,23,23,796.txt
29,30,29,21,22,23,21,21,21,21,29,19,19,29,23,21,21,21,21,21,23,24,23,23,23,22,24,23,23,24,23,22,22,23,22,22,22,800.txt
29,30,29,21,22,23,21,21,21,21,29,19,19,29,23,21,21,21,21,21,23,24,23,23,23,22,24,23,23,24,23,22,22,23,22,22,22,802.txt
0,30,26,20,21,21,18,18,18,18,18,19,19,29,23,21,21,21,21,21,23,24,23,23,23,22,24,23,23,24,23,22,22,23,22,22,22,806.txt
29,30,29,21,22,23,21,21,21,21,29,19,19,29,23,21,21,21,21,21,23,24,23,23,23,22,24,23,23,24,23,22,22,23,22,22,22,807.txt
0,12,0,1,1,0,1,1,1,1,0,0,0,16,17,15,15,15,15,15,17,18,17,17,17,16,18,17,17,18,17,16,16,17,16,15,15,810.txt
29,30,29,21,22,23,21,21,21,21,29,19,19,29,23,21,21,21,21,21,23,24,23,23,23,22,24,23,23,24,23,22,22,23,22,22,22,813.txt
28,30,29,21,22,23,21,21,21,21,18,19,19,24,24,23,22,22,22,23,24,25,24,24,24,23,26,24,24,21,24,23,23,24,23,23,23,816.txt
29,30,29,21,22,23,21,21,21,21,29,19,19,29,23,21,21,21,21,21,23,24,23,23,23,22,24,23,23,24,23,22,22,23,22,22,22,817.txt
29,30,29,21,22,23,21,21,21,21,29,19,19,29,23,21,21,21,21,21,23,24,23,23,23,22,24,23,23,24,23,22,22,23,22,22,22,818.txt
29,30,29,21,22,23,21,21,21,21,29,19,19,29,23,21,21,21,21,21,23,24,23,23,23,22,24,23,23,24,23,22,22,23,22,22,22,821.txt
29,30,14,8,8,23,21,21,21,21,15,19,19,26,27,25,25,25,25,22,27,28,27,27,27,26,25,27,27,25,27,26,26,27,26,26,26,824.txt
29,30,29,21,22,23,21,21,21,21,29,19,19,29,23,21,21,21,21,21,23,24,23,23,23,22,24,23,23,24,23,22,22,23,22,22,22,827.txt
29,30,29,21,22,23,21,21,21,21,29,19,19,29,23,21,21,21,21,21,23,24,23,23,23,22,24,23,23,24,23,22,22,23,22,22,22,831.txt
29,30,29,21,22,23,21,21,21,21,29,19,19,29,23,21,21,21,21,21,23,24,23,23,23,22,24,23,23,24,23,22,22,23,22,22,22,832.txt
29,30,29,21,22,23,21,21,21,21,15,19,19,22,23,21,21,21,21,21,23,24,23,23,23,22,24,23,23,24,23,22,22,23,22,22,22,834.txt
29,30,29,21,22,23,21,21,21,21,29,19,19,29,23,21,21,21,21,21,23,24,23,23,23,22,24,23,23,24,23,22,22,23,22,22,22,836.txt
29,30,29,21,22,23,21,21,21,21,29,19,19,29,23,21,21,21,21,21,23,24,23,23,23,22,24,23,23,24,23,22,22,23,22,22,22,839.txt
29,30,29,21,22,23,21,21,21,21,29,23,23,29,23,21,21,21,21,21,23,24,23,23,23,22,24,23,23,24,23,22,22,23,22,22,22,842.txt
29,30,29,21,22,23,21,21,21,21,29,19,19,29,23,21,21,21,21,21,23,24,23,23,23,22,24,23,23,24,23,22,22,23,22,22,22,847.txt
29,30,29,21,22,23,21,21,21,21,29,19,19,29,23,21,21,21,21,21,23,24,23,23,23,22,24,23,23,24,23,22,22,23,22,22,22,851.txt
29,30,29,21,22,23,21,21,21,21,29,19,19,24,24,23,22,22,22,23,24,25,24,24,24,23,26,24,24,26,24,23,23,24,23,23,23,852.txt
29,30,29,21,22,23,21,21,21,21,29,19,19,29,23,21,21,21,21,21,23,24,23,23,23,22,24,23,23,24,23,22,22,23,22,22,22,855.txt
29,30,14,8,8,23,21,21,21,21,29,27,26,26,27,25,25,25,25,22,27,28,27,27,27,26,25,27,27,25,27,26,26,27,26,26,26,857.txt
22,19,16,13,28,29,27,27,27,27,17,13,13,23,26,22,24,24,24,25,26,27,26,26,26,28,28,26,26,28,26,25,25,26,25,25,25,859.txt
22,12,19,13,28,29,27,27,27,27,17,20,20,27,26,22,24,24,24,25,26,27,26,26,26,28,28,26,26,28,26,25,25,26,25,25,25,861.txt
29,30,29,21,22,23,21,21,21,21,29,23,23,24,24,23,22,22,22,23,24,25,24,24,24,23,26,24,24,26,24,23,23,24,23,23,23,864.txt
22,12,19,13,28,29,27,27,27,27,17,20,20,25,25,24,23,23,23,24,25,26,25,25,25,24,27,25,25,27,25,24,24,25,24,24,24,866.txt
29,30,29,21,22,23,21,21,21,21,29,19,19,29,23,21,21,21,21,21,23,24,23,23,23,22,24,23,23,24,23,22,22,23,22,22,22,868.txt
29,30,29,21,22,23,21,21,21,21,29,19,19,22,23,21,21,21,21,21,23,24,23,23,23,22,24,23,23,24,23,22,22,23,22,22,22,870.txt
22,12,19,13,28,29,27,27,27,27,17,20,20,23,26,22,24,24,24,25,26,27,26,26,26,28,28,26,26,28,26,25,25,26,25,25,25,872.txt
0,12,0,1,1,0,1,1,1,1,0,0,0,13,14,12,12,12,12,12,14,15,15,15,15,14,15,15,15,15,19,14,14,14,13,13,13,874.txt
29,30,29,21,22,23,21,21,21,21,29,19,19,29,23,21,21,21,21,21,23,24,23,23,23,22,24,23,23,24,23,22,22,23,22,22,22,879.txt
29,30,29,21,22,23,21,21,21,21,29,19,19,29,23,21,21,21,21,21,23,24,23,23,23,22,24,23,23,24,23,22,22,23,22,22,22,882.txt
29,30,29,21,22,23,21,21,21,21,29,19,19,29,23,21,21,21,21,21,23,24,23,23,23,22,24,23,23,24,23,22,22,23,22,22,22,884.txt
29,30,29,21,22,23,21,21,21,21,29,19,19,29,23,21,21,21,21,21,23,24,23,23,23,22,24,23,23,24,23,22,22,23,22,22,22,885.txt
29,30,29,21,22,23,21,21,21,21,29,19,19,29,23,21,21,21,21,21,23,24,23,23,23,22,24,23,23,24,23,22,22,23,22,22,22,886.txt
22,30,24,28,29,28,26,26,26,26,23,20,20,29,26,22,24,24,24,25,26,27,26,26,26,28,28,26,26,28,26,25,25,26,25,25,25,889.txt
29,30,29,21,22,23,21,21,21,21,29,23,23,29,23,21,21,21,21,21,23,24,23,23,23,22,24,23,23,24,23,22,22,23,22,22,22,891.txt
29,30,29,21,22,23,21,21,21,21,29,19,19,29,23,21,21,21,21,21,23,24,23,23,23,22,24,23,23,24,23,22,22,23,22,22,22,893.txt
0,12,0,0,0,0,0,0,30,30,0,0,0,13,14,12,0,0,0,0,0,0,0,0,0,0,0,0,0,0,0,0,0,0,0,0,0,896.txt
0,12,0,1,1,0,1,1,1,1,0,0,0,13,14,12,12,12,12,12,14,15,15,15,15,14,15,15,15,15,19,14,14,14,13,13,13,900.txt
29,30,29,21,22,23,21,21,21,21,29,19,19,29,23,21,21,21,21,21,23,24,23,23,23,22,24,23,23,24,23,22,22,23,22,22,22,902.txt
29,19,21,17,18,19,17,14,13,14,10,11,10,12,23,21,21,21,21,21,13,14,14,14,14,13,14,14,14,13,13,12,11,12,12,12,12,905.txt
29,30,29,21,22,23,21,21,21,21,29,19,19,29,23,21,21,21,21,21,23,24,23,23,23,22,24,23,23,24,23,22,22,23,22,22,22,907.txt
29,30,29,21,22,23,21,21,21,21,29,19,19,29,23,21,21,21,21,21,23,24,23,23,23,22,24,23,23,24,23,22,22,23,22,22,22,909.txt
22,12,19,13,28,29,27,27,27,27,17,20,20,25,25,24,23,23,23,24,25,26,25,25,25,24,27,25,25,27,25,24,24,25,24,24,24,911.txt
29,30,29,21,22,23,21,21,21,21,15,19,19,29,23,21,21,21,21,21,23,24,23,23,23,22,24,23,23,24,23,22,22,23,22,22,22,914.txt
0,19,29,21,22,23,21,21,21,21,18,19,19,29,23,21,21,21,21,21,23,24,23,23,23,22,24,23,23,24,23,22,22,23,22,22,22,917.txt
22,30,19,13,28,29,27,27,27,27,17,24,24,22,1,22,24,24,24,25,26,27,26,26,26,28,28,26,26,28,26,25,25,26,25,25,25,922.txt
29,30,29,21,22,23,21,21,21,21,29,19,19,29,23,21,21,21,21,21,23,24,23,23,23,22,24,23,23,24,23,22,22,23,22,22,22,924.txt
22,13,19,13,28,29,27,27,27,27,17,20,20,23,26,22,24,24,24,25,26,27,26,26,26,28,28,26,26,28,26,25,25,26,25,25,25,925.txt
0,30,29,21,22,23,21,21,21,21,18,19,19,29,23,21,21,21,21,21,23,24,23,23,23,22,24,23,23,24,23,22,22,23,22,22,22,926.txt
29,30,29,21,22,23,21,21,21,21,29,19,19,29,23,21,21,21,21,21,23,24,23,23,23,22,24,23,23,24,23,22,22,23,22,22,22,928.txt
29,30,29,21,22,23,21,21,21,21,29,19,19,29,23,21,21,21,21,21,23,24,23,23,23,22,24,23,23,24,23,22,22,23,22,22,22,930.txt
29,30,29,21,22,23,21,21,21,21,29,19,19,29,23,21,21,21,21,21,23,24,23,23,23,22,24,23,23,24,23,22,22,23,22,22,22,932.txt
20,0,10,21,22,4,21,21,21,9,29,19,19,29,23,2,21,21,21,21,23,24,23,23,23,11,24,23,23,24,23,22,22,23,22,22,22,935.txt
29,30,29,0,0,23,0,0,30,30,29,19,19,24,24,23,0,0,0,0,0,0,0,0,0,0,0,0,0,0,0,0,0,0,0,0,0,940.txt
29,12,29,21,22,23,21,21,21,21,29,19,19,30,23,21,21,21,21,21,23,24,23,23,23,22,24,23,23,24,23,22,22,23,22,22,22,942.txt
29,30,29,21,22,23,21,21,21,21,29,23,23,29,23,21,21,21,21,21,23,24,23,23,23,22,24,23,23,24,23,22,22,23,22,22,22,944.txt
29,30,29,21,22,23,21,21,21,21,29,19,19,29,23,21,21,21,21,21,23,24,23,23,23,22,24,23,23,24,23,22,22,23,22,22,22,946.txt
22,12,19,13,28,29,27,27,27,27,17,20,20,23,26,22,24,24,24,25,26,27,26,26,26,28,28,26,26,28,26,25,25,26,25,25,25,949.txt
29,12,29,21,22,23,21,21,21,21,29,19,19,30,23,21,21,21,21,21,23,24,23,23,23,22,24,23,23,24,23,22,22,23,22,22,22,951.txt
29,30,29,21,22,23,21,21,21,21,29,19,19,29,23,21,21,21,21,21,23,24,23,23,23,22,24,23,23,24,23,22,22,23,22,22,22,954.txt
29,0,29,21,22,23,21,21,21,21,29,19,19,29,23,21,21,21,21,21,23,24,23,23,23,22,24,23,23,24,23,22,22,23,22,22,22,956.txt
29,30,29,21,22,23,21,21,21,21,29,19,19,29,23,21,21,21,21,21,23,24,23,23,23,22,24,23,23,24,23,22,22,23,22,22,22,959.txt
29,30,29,21,22,23,21,21,21,21,29,19,19,29,23,21,21,21,21,21,23,24,23,23,23,22,24,23,23,24,23,22,22,23,22,22,22,961.txt
29,30,29,21,22,23,21,21,21,21,29,19,19,22,23,21,21,21,21,21,23,24,23,23,23,22,24,23,23,24,23,22,22,23,22,22,22,962.txt
0,30,29,21,22,23,21,21,21,21,18,19,19,24,24,23,22,22,22,23,24,25,24,24,24,23,26,24,24,26,24,23,23,24,23,23,23,964.txt
29,30,29,21,22,23,21,21,21,21,29,19,19,29,23,21,21,21,21,21,23,24,23,23,23,22,24,23,23,24,23,22,22,23,22,22,22,966.txt
29,30,29,21,22,23,21,21,21,21,29,19,19,29,23,21,21,21,21,21,23,24,23,23,23,22,24,23,23,24,23,22,22,23,22,22,22,968.txt
29,30,29,21,22,23,21,21,21,21,15,19,19,29,23,21,21,21,21,21,23,24,23,23,23,22,24,23,23,24,23,22,22,23,22,22,22,970.txt
29,30,29,21,22,23,21,21,21,21,29,19,19,29,23,21,21,21,21,21,23,24,23,23,23,22,24,23,23,24,23,22,22,23,22,22,22,974.txt
29,30,29,21,22,23,21,21,21,21,29,19,19,29,23,21,21,21,21,21,23,24,23,23,23,22,24,23,23,24,23,22,22,23,22,22,22,975.txt
29,30,29,21,22,23,21,21,21,21,29,19,19,29,23,21,21,21,21,21,23,24,23,23,23,22,24,23,23,24,23,22,22,23,22,22,22,979.txt
29,30,29,21,22,23,21,21,21,21,29,19,19,29,23,21,21,21,21,21,23,24,23,23,23,22,24,23,23,24,23,22,22,23,22,22,22,981.txt
22,12,19,13,28,29,27,27,27,27,17,20,20,21,22,24,19,20,19,19,21,23,21,22,21,20,22,21,22,22,21,20,21,21,20,19,19,987.txt
29,30,29,21,22,23,21,21,21,21,29,19,19,24,24,23,22,22,22,23,24,25,24,24,24,23,26,24,24,26,24,23,23,24,23,23,23,989.txt
20,24,22,14,14,13,11,11,11,9,8,8,8,9,10,11,11,10,10,10,10,11,11,11,12,11,11,11,11,11,11,10,10,11,10,10,9,994.txt
22,12,19,13,28,29,27,27,27,27,17,20,20,23,26,22,24,24,24,25,26,27,26,26,26,28,28,26,26,28,26,25,25,26,25,25,25,996.txt
22,12,19,13,28,29,27,27,27,27,17,24,24,25,25,24,23,23,23,24,25,26,25,25,25,24,27,25,25,27,25,24,24,25,24,24,24,998.txt
0,30,29,21,22,23,21,21,21,21,18,23,23,29,23,21,21,21,21,21,23,24,23,23,23,22,24,23,23,24,23,22,22,23,22,22,22,1002.txt
29,30,29,21,22,23,21,21,21,21,29,19,19,29,23,21,21,21,21,21,23,24,23,23,23,22,24,23,23,24,23,22,22,23,22,22,22,1005.txt
29,30,29,21,22,23,21,21,21,21,29,19,19,24,24,23,22,22,22,23,24,25,24,24,24,23,26,24,24,26,24,23,23,24,23,23,23,1008.txt
29,30,29,21,22,23,21,21,21,21,29,19,19,29,23,21,21,21,21,21,23,24,23,23,23,22,24,23,23,24,23,22,22,23,22,22,22,1010.txt
29,30,29,21,22,23,21,21,21,21,29,23,23,29,23,21,21,21,21,21,23,24,23,23,23,22,24,23,23,24,23,22,22,23,22,22,22,1013.txt
29,30,29,21,22,23,21,21,21,21,29,19,19,29,23,21,21,21,21,21,23,24,23,23,23,22,24,23,23,24,23,22,22,23,22,22,22,1015.txt
29,30,29,21,22,23,21,21,21,21,29,23,23,29,23,21,21,21,21,21,23,24,23,23,23,22,24,23,23,24,23,22,22,23,22,22,22,1018.txt
0,30,10,20,21,4,18,18,18,18,18,19,19,24,24,2,22,22,22,23,24,25,24,24,24,23,26,24,24,26,24,23,23,24,23,23,23,1020.txt
29,30,29,21,22,23,21,21,21,21,29,19,19,29,23,21,21,21,21,21,23,24,23,23,23,22,24,23,23,24,23,22,22,23,22,22,22,1022.txt
29,30,29,21,22,23,21,21,21,21,29,23,23,29,23,21,21,21,21,21,23,24,23,23,23,22,24,23,23,24,23,22,22,23,22,22,22,1025.txt
29,0,29,21,22,23,21,21,21,21,29,19,19,29,23,21,21,21,21,21,23,24,23,23,23,22,24,23,23,24,23,22,22,23,22,22,22,1027.txt
29,30,29,21,22,23,21,21,21,21,29,19,19,29,23,21,21,21,21,21,23,24,23,23,23,22,24,23,23,24,23,22,22,23,22,22,22,1030.txt
29,30,29,21,22,23,21,21,21,21,29,19,19,29,23,21,21,21,21,21,23,24,23,23,23,22,24,23,23,24,23,22,22,23,22,22,22,1036.txt
29,30,29,21,22,23,21,21,21,21,29,19,19,29,23,21,21,21,21,21,23,24,23,23,23,22,24,23,23,24,23,22,22,23,22,22,22,1041.txt
29,30,29,21,22,23,21,21,21,21,29,23,23,29,23,21,21,21,21,21,23,24,23,23,23,22,24,23,23,24,23,22,22,23,22,22,22,1043.txt
29,30,29,21,22,23,21,21,21,21,29,19,19,24,24,23,22,22,22,23,24,25,24,24,24,23,26,24,24,26,15,23,23,24,23,23,23,1045.txt
29,30,29,21,22,23,21,21,21,21,29,19,19,29,23,21,21,21,21,21,23,24,23,23,23,22,24,23,23,24,23,22,22,23,22,22,22,1046.txt
29,30,29,21,22,23,21,21,21,21,29,19,19,29,23,21,21,21,21,21,23,24,23,23,23,22,24,23,23,24,23,22,22,23,22,22,22,1048.txt
29,30,29,21,22,23,21,21,21,21,29,19,19,29,23,21,21,21,21,21,23,24,23,23,23,22,24,23,23,24,23,22,22,23,22,22,22,1051.txt
22,12,24,28,29,28,26,26,26,26,23,20,20,30,26,22,24,24,24,25,26,27,26,26,26,28,28,26,26,28,26,25,25,26,25,25,25,1054.txt
14,30,29,21,22,23,21,21,21,21,29,23,23,29,23,21,21,21,21,21,23,24,23,23,23,22,24,23,23,24,23,22,22,23,22,22,22,1057.txt
29,30,29,21,22,23,21,21,21,21,29,19,19,29,23,21,21,21,21,21,23,24,23,23,23,22,24,23,23,24,23,22,22,23,22,22,22,1059.txt
29,30,29,21,22,23,21,21,21,21,29,19,19,29,23,21,21,21,21,21,23,24,23,23,23,22,24,23,23,24,23,22,22,23,22,22,22,1060.txt
29,30,29,21,22,23,21,21,21,21,29,19,19,29,23,21,21,21,21,21,23,24,23,23,23,22,24,23,23,24,23,22,22,23,22,22,22,1064.txt
29,30,29,21,22,23,21,21,21,21,29,23,23,22,23,21,21,21,21,21,23,24,23,23,23,22,24,23,23,24,23,22,22,23,22,22,22,1069.txt
29,30,29,21,22,23,21,21,21,21,29,19,19,29,23,21,21,21,21,21,23,24,23,23,23,22,24,23,23,24,23,22,22,23,22,22,22,1071.txt
29,30,29,21,22,23,21,21,21,21,29,23,23,29,23,21,21,21,21,21,23,24,23,23,23,22,24,23,23,24,23,22,22,23,22,22,22,1073.txt
29,30,29,21,22,23,21,21,21,21,29,19,19,29,23,21,21,21,21,21,23,24,23,23,23,22,24,23,23,24,23,22,22,23,22,22,22,1075.txt
29,30,29,21,22,23,21,21,21,21,29,23,23,29,23,21,21,21,21,21,23,24,23,23,23,22,24,23,23,24,23,22,22,23,22,22,22,1076.txt
22,12,19,13,28,29,27,27,27,27,17,20,20,25,25,24,23,23,23,24,25,26,25,25,25,24,27,25,25,27,25,24,24,25,24,24,24,1078.txt
29,30,29,21,22,23,21,21,21,21,29,23,23,29,23,21,21,21,21,21,23,24,23,23,23,22,24,23,23,24,23,22,22,23,22,22,22,1080.txt
29,30,29,21,22,23,21,21,21,21,29,19,19,29,23,21,21,21,21,21,23,24,23,23,23,22,24,23,23,24,23,22,22,23,22,22,22,1082.txt
29,30,29,21,22,23,21,21,21,21,15,19,19,29,23,21,21,21,21,21,23,24,23,23,23,22,24,23,23,24,23,22,22,23,22,22,22,1084.txt
29,30,29,21,22,23,21,21,21,21,29,19,19,29,23,21,21,21,21,21,23,24,23,23,23,22,24,23,23,24,23,22,22,23,22,22,22,1086.txt
29,30,29,21,22,23,21,21,21,21,29,19,19,29,23,21,21,21,21,21,23,24,23,23,23,22,24,23,23,24,23,22,22,23,22,22,22,1088.txt
29,30,29,21,22,23,21,21,21,21,29,19,19,29,23,21,21,21,21,21,23,24,23,23,23,22,24,23,23,24,23,22,22,23,22,22,22,1090.txt
29,30,29,21,22,23,21,21,21,21,15,19,19,29,23,21,21,21,21,21,23,24,23,23,23,22,24,23,23,24,23,22,22,23,22,22,22,1093.txt
29,30,29,21,22,23,21,21,21,21,29,19,19,29,23,21,21,21,21,21,23,24,23,23,23,22,24,23,23,24,23,22,22,23,22,22,22,1094.txt
0,30,26,20,21,21,18,18,18,18,18,19,19,24,24,23,22,22,22,23,24,25,24,24,24,23,26,24,24,26,24,23,23,24,23,23,23,1096.txt
29,30,29,21,22,23,21,21,21,21,29,19,19,29,23,21,21,21,21,21,23,24,23,23,23,22,24,23,23,24,23,22,22,23,22,22,22,1101.txt
29,30,29,21,22,23,21,21,21,21,29,19,19,29,23,21,21,21,21,21,23,24,23,23,23,22,24,23,23,24,23,22,22,23,22,22,22,1105.txt
29,30,29,21,22,23,21,21,21,21,29,19,19,29,23,21,21,21,21,21,23,24,23,23,23,22,24,23,23,24,23,22,22,23,22,22,22,1106.txt
29,19,29,21,22,23,21,21,21,21,29,19,19,29,23,21,21,21,21,21,23,24,23,23,23,22,24,23,23,24,23,22,22,23,22,22,22,1108.txt
29,30,29,21,22,23,21,21,21,21,29,19,19,29,23,21,21,21,21,21,23,24,23,23,23,22,24,23,23,24,23,22,22,23,22,22,22,1109.txt
29,30,29,21,22,23,21,21,21,21,29,19,19,22,23,21,21,21,21,21,23,24,23,23,23,22,24,23,23,24,23,22,22,23,22,22,22,1114.txt
29,30,29,21,22,23,21,21,21,21,29,19,19,29,23,21,21,21,21,21,23,24,23,23,23,22,24,23,23,24,23,22,22,23,22,22,22,1117.txt
29,30,29,21,22,23,21,21,21,21,29,19,19,29,23,21,21,21,21,21,23,24,23,23,23,22,24,23,23,24,23,22,22,23,22,22,22,1118.txt
29,30,29,21,22,23,21,21,21,21,29,19,19,29,23,21,21,21,21,21,23,24,23,23,23,22,24,23,23,24,23,22,22,23,22,22,22,1121.txt
29,30,29,21,22,23,21,21,21,21,29,19,19,29,23,21,21,21,21,21,23,24,23,23,23,22,24,23,23,24,23,22,22,23,22,22,22,1122.txt
29,30,29,21,22,23,21,21,21,21,29,19,19,29,23,21,21,21,21,21,23,24,23,23,23,22,24,23,23,24,23,22,22,23,22,22,22,1124.txt
29,30,29,21,22,23,21,21,21,21,29,19,19,22,23,21,21,21,21,21,23,24,23,23,23,22,24,23,23,24,23,22,22,23,22,22,22,1126.txt
29,30,29,21,22,23,21,21,21,21,29,19,19,29,23,21,21,21,21,21,23,24,23,23,23,22,24,23,23,24,23,22,22,23,22,22,22,1128.txt
22,12,19,13,28,29,27,27,27,27,17,20,20,28,28,26,26,26,26,26,28,29,28,28,28,27,29,28,28,29,28,27,27,28,27,27,27,1130.txt
0,12,0,1,1,0,1,1,1,1,0,0,0,13,14,12,12,12,12,12,14,15,15,15,15,14,15,15,15,15,19,14,14,14,13,13,13,1135.txt
0,30,29,21,22,23,21,21,21,21,15,19,19,24,24,23,22,22,22,23,24,25,24,24,24,23,26,24,24,26,24,23,23,24,23,23,23,1136.txt
29,30,29,21,22,23,21,21,21,21,29,23,23,29,23,21,21,21,21,21,23,24,23,23,23,22,24,23,23,24,23,22,22,23,22,22,22,1137.txt
29,30,29,21,22,23,21,21,21,21,29,19,19,29,23,21,21,21,21,21,23,24,23,23,23,22,24,23,23,24,23,22,22,23,22,22,22,1139.txt
29,30,29,21,22,23,21,21,21,21,29,19,19,29,23,21,21,21,21,21,23,24,23,23,23,22,24,23,23,24,23,22,22,23,22,22,22,1141.txt
29,30,10,21,22,4,21,21,21,21,29,23,23,29,23,2,21,21,21,21,23,24,23,23,23,22,24,23,23,24,23,22,22,23,22,22,22,1143.txt
29,30,29,21,22,23,21,21,21,21,29,19,19,29,23,21,21,21,21,21,23,24,23,23,23,22,24,23,23,24,23,22,22,23,22,22,22,1147.txt
22,12,19,13,28,29,27,27,27,27,17,20,20,23,26,22,24,24,24,25,26,27,26,26,26,28,28,26,26,28,26,25,25,26,25,25,25,1149.txt
29,30,29,21,22,23,21,21,21,21,29,19,19,29,23,21,21,21,21,21,23,24,23,23,23,22,24,23,23,24,23,22,22,23,22,22,22,1151.txt
29,30,29,21,22,23,21,21,21,21,29,23,23,22,23,21,21,21,21,21,23,24,23,23,23,22,24,23,23,24,23,22,22,23,22,22,22,1152.txt
29,30,29,21,22,23,21,21,21,21,29,19,19,29,23,21,21,21,21,21,23,24,23,23,23,22,24,23,23,24,23,22,22,23,22,22,22,1156.txt
0,30,0,1,1,0,1,1,1,1,0,0,0,24,14,12,12,12,12,12,14,15,15,15,15,14,15,15,15,15,19,14,14,14,13,13,13,1158.txt
29,30,29,21,22,23,21,21,21,21,29,19,19,29,23,21,21,21,21,21,23,24,23,23,23,22,24,23,23,24,23,22,22,23,22,22,22,1161.txt
29,30,29,21,22,23,21,21,21,21,29,19,19,29,23,21,21,21,21,21,23,24,23,23,23,22,24,23,23,24,23,22,22,23,22,22,22,1166.txt
29,30,29,21,22,23,21,21,21,21,29,19,19,29,23,21,21,21,21,21,23,24,23,23,23,22,24,23,23,24,23,22,22,23,22,22,22,1168.txt
14,6,10,14,14,4,11,11,11,9,8,8,8,9,10,2,11,10,10,10,10,11,11,11,12,11,11,11,11,11,11,10,10,11,10,10,9,1169.txt
29,17,7,29,30,30,28,25,25,25,22,23,23,29,23,21,21,21,21,21,23,24,23,23,23,22,24,23,23,24,23,22,22,23,22,22,22,1171.txt
29,30,29,21,22,23,21,21,21,21,29,19,19,29,23,21,21,21,21,21,23,24,23,23,23,22,24,23,23,24,23,22,22,23,22,22,22,1175.txt
22,12,19,13,28,29,27,27,27,27,17,20,20,23,26,22,24,24,24,25,26,27,26,26,26,28,28,26,26,28,26,25,25,26,25,25,25,1177.txt
29,30,29,21,22,23,21,21,21,21,29,19,19,29,23,21,21,21,21,21,23,24,23,23,23,22,24,23,23,24,23,22,22,23,22,22,22,1179.txt
29,30,29,21,22,23,21,21,21,21,29,19,19,29,23,21,21,21,21,21,23,24,23,23,23,22,24,23,23,24,23,22,22,23,22,22,22,1183.txt
29,19,29,21,22,23,21,21,21,21,29,23,23,29,23,21,21,21,21,21,23,24,23,23,23,22,24,23,23,24,23,22,22,23,22,22,22,1184.txt
29,19,29,21,22,23,21,21,21,21,29,23,23,22,30,21,21,21,21,21,23,24,23,23,23,22,24,23,23,24,23,22,22,23,22,22,22,1190.txt
25,30,29,21,22,23,21,21,21,21,18,19,19,29,23,21,21,21,21,21,23,24,23,23,23,22,24,23,23,24,23,22,22,23,22,22,22,1192.txt
29,30,29,21,22,23,21,21,21,21,29,19,19,24,24,23,22,22,22,23,24,25,24,24,24,23,26,24,24,26,24,23,23,24,23,23,23,1194.txt
29,30,29,21,22,23,21,21,21,21,29,19,19,29,23,21,21,21,21,21,23,24,23,23,23,22,24,23,23,24,23,22,22,23,22,22,22,1196.txt
29,30,29,21,22,23,21,21,21,21,29,19,19,29,23,21,21,21,21,21,23,24,23,23,23,22,24,23,23,24,23,22,22,23,22,22,22,1197.txt
29,30,29,21,22,23,21,21,21,21,29,19,19,29,23,21,21,21,21,21,23,24,23,23,23,22,24,23,23,24,23,22,22,23,22,22,22,1199.txt
0,30,26,20,21,21,18,18,18,18,18,19,19,24,24,23,22,22,22,23,24,25,24,24,24,23,26,24,24,26,24,23,23,24,23,23,23,1201.txt
29,30,29,21,22,23,21,21,21,21,29,19,19,29,23,21,21,21,21,21,23,24,23,23,23,22,24,23,23,24,23,22,22,23,22,22,22,1203.txt
29,30,29,21,22,23,21,21,21,21,29,23,23,29,23,21,21,21,21,21,23,24,23,23,23,22,24,23,23,24,23,22,22,23,22,22,22,1205.txt
29,30,21,17,18,19,17,14,13,14,10,11,10,12,23,21,21,21,21,21,13,14,14,14,14,13,14,14,14,13,13,12,11,12,12,12,12,1207.txt
29,30,29,21,22,23,21,21,21,21,29,19,19,29,23,21,21,21,21,21,23,24,23,23,23,22,24,23,23,24,23,22,22,23,22,22,22,1211.txt
29,30,29,21,22,23,21,21,21,21,29,19,19,29,23,21,21,21,21,21,23,24,23,23,23,22,24,23,23,24,23,22,22,23,22,22,22,1214.txt
29,30,29,21,22,23,21,21,21,21,29,19,19,29,23,21,21,21,21,21,23,24,23,23,23,22,24,23,23,24,23,22,22,23,22,22,22,1216.txt
29,30,29,21,22,23,21,21,21,21,29,19,19,29,23,21,21,21,21,21,23,24,23,23,23,22,24,23,23,24,23,22,22,23,22,22,22,1217.txt
29,30,29,21,22,23,21,21,21,21,29,19,19,29,23,21,21,21,21,21,23,24,23,23,23,22,24,23,23,24,23,22,22,23,22,22,22,1219.txt
24,12,0,1,1,0,1,1,1,1,0,0,0,16,17,15,15,15,15,15,17,18,17,17,17,16,18,17,17,18,17,16,16,17,16,15,15,1221.txt
29,30,29,21,22,23,21,21,21,21,29,19,19,24,24,23,22,22,22,23,24,25,24,24,24,23,26,24,24,26,24,23,23,24,23,23,23,1225.txt
29,30,29,21,22,23,21,21,21,21,29,23,23,29,23,21,21,21,21,21,23,24,23,23,23,22,24,23,23,24,23,22,22,23,22,22,22,1228.txt
29,30,29,21,22,23,21,21,21,21,29,19,19,29,23,21,21,21,21,21,23,24,23,23,23,22,24,23,23,24,23,22,22,23,22,22,22,1230.txt
29,30,29,21,22,23,21,21,21,21,29,23,23,29,23,21,21,21,21,21,23,24,23,23,23,22,24,23,23,24,23,22,22,23,22,22,22,1234.txt
29,30,29,21,22,23,21,21,21,21,29,19,19,29,23,21,21,21,21,21,23,24,23,23,23,22,24,23,23,24,23,22,22,23,22,22,22,1237.txt
29,30,29,21,22,23,21,21,21,21,29,23,23,29,23,21,21,21,21,21,23,24,23,23,23,22,24,23,23,24,23,22,22,23,22,22,22,1239.txt
29,30,21,17,18,19,17,14,13,14,10,11,10,12,23,21,21,21,21,21,13,14,14,14,14,13,14,14,14,13,13,12,11,12,12,12,12,1241.txt
29,30,29,21,22,23,21,21,21,21,29,19,19,24,24,23,22,22,22,23,24,25,24,24,24,23,26,24,24,21,24,23,23,24,23,23,23,1243.txt
0,30,26,20,21,21,18,18,18,18,18,19,19,24,24,23,22,22,22,23,24,25,24,24,24,23,26,24,24,26,24,23,23,24,23,23,23,1245.txt
22,12,19,13,28,29,27,27,27,27,17,24,24,25,25,24,23,23,23,24,25,26,25,25,25,24,27,25,25,27,25,24,24,25,24,24,24,1249.txt
29,30,29,21,22,23,21,21,21,21,29,19,19,29,23,21,21,21,21,21,23,24,23,23,23,22,24,23,23,24,23,22,22,23,22,22,22,1251.txt
0,30,26,0,0,21,0,0,30,30,18,23,23,24,24,23,0,0,0,0,0,0,0,0,0,0,0,0,0,0,0,0,0,0,0,0,0,1254.txt
29,30,29,21,22,23,21,21,21,21,29,23,23,24,24,23,22,22,22,23,24,25,24,24,24,23,26,24,24,26,24,23,23,24,23,23,23,1255.txt
29,12,14,8,8,23,21,21,21,21,15,27,26,28,27,25,25,25,25,22,27,28,27,27,27,26,25,27,27,25,27,26,26,27,26,26,26,1267.txt
29,19,29,21,22,23,21,21,21,21,29,23,23,24,24,20,22,22,22,23,24,25,24,24,24,23,26,24,24,26,24,23,23,24,23,23,23,1271.txt
20,24,29,14,14,13,11,11,11,9,8,8,8,9,10,21,21,21,10,21,23,24,23,23,23,11,11,23,11,11,11,10,10,11,10,10,9,1274.txt
0,30,26,20,21,21,18,18,18,18,18,19,19,29,23,21,21,21,21,21,23,24,23,23,23,22,24,23,23,24,23,22,22,23,22,22,22,1276.txt
29,30,29,21,22,23,21,21,21,21,29,19,19,29,23,21,21,21,21,21,23,24,23,23,23,22,24,23,23,24,23,22,22,23,22,22,22,1278.txt
0,12,0,1,1,0,1,1,1,1,0,0,0,13,14,12,12,12,12,12,14,15,15,15,15,14,15,15,15,15,19,14,14,14,13,13,13,1280.txt
29,30,29,21,22,23,21,21,21,21,29,19,19,24,24,23,22,22,22,23,24,25,24,24,24,23,26,24,24,26,24,23,23,24,23,23,23,1283.txt
29,30,10,21,22,4,21,21,21,21,29,19,19,29,23,2,21,21,21,21,23,24,23,23,23,22,24,23,23,24,23,22,22,23,22,22,22,1285.txt
0,30,26,0,0,21,0,0,30,30,18,19,19,24,24,23,0,0,0,0,0,0,0,0,0,0,0,0,0,0,0,0,0,0,0,0,0,1287.txt
29,30,29,21,22,23,21,21,21,21,29,23,23,29,23,21,21,21,21,21,23,24,23,23,23,22,24,23,23,24,23,22,22,23,22,22,22,1288.txt
29,30,29,21,22,23,21,21,21,21,29,19,19,24,24,23,22,22,22,23,24,25,24,24,24,23,26,24,24,26,24,23,23,24,23,23,23,1290.txt
29,30,29,21,22,23,21,21,21,21,29,19,19,29,23,21,21,21,21,21,23,24,23,23,23,22,24,23,23,24,23,22,22,23,22,22,22,1292.txt
29,30,29,21,22,23,21,21,21,21,29,19,19,29,23,21,21,21,21,21,23,24,23,23,23,22,24,23,23,24,23,22,22,23,22,22,22,1295.txt
0,20,4,21,22,23,21,21,21,21,18,19,19,24,24,20,22,22,22,23,24,25,24,24,24,23,26,24,24,26,24,23,23,24,23,23,23,1297.txt
29,30,29,21,22,23,21,21,21,21,29,19,19,29,23,21,21,21,21,21,23,24,23,23,23,22,24,23,23,24,23,22,22,23,22,22,22,1300.txt
29,14,8,3,3,5,3,30,29,28,30,1,1,1,30,3,3,3,3,3,3,3,3,3,3,29,3,3,3,3,3,30,30,3,30,30,30,1302.txt
22,12,24,28,29,28,26,26,26,26,12,20,20,23,26,22,24,24,24,25,26,27,26,26,26,28,28,26,26,28,26,25,25,26,25,25,25,1303.txt
0,12,24,18,19,15,13,15,15,15,16,0,0,13,14,12,12,12,12,12,14,15,15,15,15,14,15,15,15,15,19,14,14,14,13,13,13,1305.txt
29,30,29,21,22,23,21,21,21,21,29,23,23,29,23,21,21,21,21,21,23,24,23,23,23,22,24,23,23,24,23,22,22,23,22,22,22,1307.txt
0,30,26,20,21,21,18,18,18,18,18,19,19,24,24,23,22,22,22,23,24,25,24,24,24,23,26,24,24,26,24,23,23,24,23,23,23,1309.txt
29,30,29,21,22,23,21,21,21,21,29,19,19,29,23,21,21,21,21,21,23,24,23,23,23,22,24,23,23,24,23,22,22,23,22,22,22,1311.txt
29,30,29,21,22,23,21,21,21,21,29,19,19,29,23,21,21,21,21,21,23,24,23,23,23,22,24,23,23,24,23,22,22,23,22,22,22,1314.txt
0,30,26,20,21,21,18,18,18,18,18,19,19,24,24,23,22,22,22,23,24,25,24,24,24,23,26,24,24,26,24,23,23,24,23,23,23,1315.txt
29,30,29,21,22,23,21,21,21,21,29,19,19,29,23,21,21,21,21,21,23,24,23,23,23,22,24,23,23,24,23,22,22,23,22,22,22,1317.txt
29,30,29,21,22,23,21,21,21,21,29,19,19,29,23,21,21,21,21,21,23,24,23,23,23,22,24,23,23,24,23,22,22,23,22,22,22,1318.txt
29,30,29,21,22,23,21,21,21,21,29,23,23,29,23,21,21,21,21,21,23,24,23,23,23,22,24,23,23,24,23,22,22,23,22,22,22,1320.txt
29,30,29,21,22,23,21,21,21,21,29,19,19,29,23,21,21,21,21,21,23,24,23,23,23,22,24,23,23,24,23,22,22,23,22,22,22,1323.txt
29,30,29,21,22,23,21,21,21,21,15,19,19,29,23,21,21,21,21,21,23,24,23,23,23,22,24,23,23,24,23,22,22,23,22,22,22,1325.txt
29,30,29,21,22,23,21,21,21,21,29,19,19,29,23,21,21,21,21,21,23,24,23,23,23,22,24,23,23,24,23,22,22,23,22,22,22,1327.txt
29,30,29,21,22,23,21,21,21,21,29,23,23,29,23,21,21,21,21,21,23,24,23,23,23,22,24,23,23,24,23,22,22,23,22,22,22,1329.txt
29,30,29,21,22,23,21,21,21,21,29,23,23,29,23,21,21,21,21,21,23,24,23,23,23,22,24,23,23,24,23,22,22,23,22,22,22,1331.txt
0,12,29,21,22,23,21,21,21,21,18,19,19,16,23,21,21,21,21,21,23,24,23,23,23,22,24,23,23,24,23,22,22,23,22,22,22,1332.txt
29,30,29,21,22,23,21,21,21,21,29,19,19,29,23,21,21,21,21,21,23,24,23,23,23,22,24,23,23,24,23,22,22,23,22,22,22,1335.txt
0,30,26,20,21,21,18,18,18,18,18,19,19,24,24,23,22,22,22,23,24,25,24,24,24,23,26,24,24,26,24,23,23,24,23,23,23,1337.txt
29,14,8,3,3,5,3,30,29,28,30,1,1,1,30,3,3,3,3,3,3,3,3,3,3,29,3,3,3,3,3,30,30,3,30,30,30,1339.txt
29,30,29,21,22,23,21,21,21,21,29,19,19,29,23,21,21,21,21,21,23,24,23,23,23,22,24,23,23,24,23,22,22,23,22,22,22,1341.txt
29,30,29,21,22,23,21,21,21,21,29,19,19,29,23,21,21,21,21,21,23,24,23,23,23,22,24,23,23,24,23,22,22,23,22,22,22,1344.txt
29,12,29,21,22,23,21,21,21,21,29,23,23,30,23,21,21,21,21,21,23,24,23,23,23,22,24,23,23,24,23,22,22,23,22,22,22,1346.txt
22,30,24,28,29,28,26,26,26,26,23,24,24,22,26,22,24,24,24,25,26,27,26,26,26,28,28,26,26,28,26,25,25,26,25,25,25,1348.txt
29,23,29,21,22,23,21,21,21,21,29,19,19,29,23,21,21,21,21,21,23,24,23,23,23,22,24,23,23,24,23,22,22,23,22,22,22,1351.txt
29,30,29,21,22,23,21,21,21,21,29,19,19,29,23,21,21,21,21,21,23,24,23,23,23,22,24,23,23,24,23,22,22,23,22,22,22,1352.txt
29,19,29,21,22,23,21,21,21,21,29,23,23,29,30,21,21,21,21,21,23,24,23,23,23,22,24,23,23,24,23,22,22,23,22,22,22,1354.txt
29,30,29,21,22,23,21,21,21,21,29,19,19,29,23,21,21,21,21,21,23,24,23,23,23,22,24,23,23,24,23,22,22,23,22,22,22,1356.txt
29,30,29,21,22,23,21,21,21,21,29,19,19,24,24,23,22,22,22,23,24,25,24,24,24,23,26,24,24,26,24,23,23,24,23,23,23,1358.txt
29,30,29,21,22,23,21,21,21,21,29,19,19,29,23,21,21,21,21,21,23,24,23,23,23,22,24,23,23,24,23,22,22,23,22,22,22,1360.txt
29,30,29,21,22,23,21,21,21,21,29,19,19,24,24,23,22,22,22,23,24,25,24,24,24,23,26,24,24,26,24,23,23,24,23,23,23,1362.txt
29,30,29,21,22,23,21,21,21,21,29,19,19,24,24,23,22,22,22,23,24,25,24,24,24,23,26,24,24,26,24,23,23,24,23,23,23,1364.txt
29,30,29,21,22,23,21,21,21,21,29,19,19,29,23,21,21,21,21,21,23,24,23,23,23,22,24,23,23,24,23,22,22,23,22,22,22,1367.txt
29,30,29,21,22,23,21,21,21,21,29,19,19,29,23,21,21,21,21,21,23,24,23,23,23,22,24,23,23,24,23,22,22,23,22,22,22,1368.txt
29,30,29,21,22,23,21,21,21,21,29,19,19,29,23,21,21,21,21,21,23,24,23,23,23,22,24,23,23,24,23,22,22,23,22,22,22,1371.txt
0,30,29,21,22,23,21,21,21,21,18,23,23,24,24,23,22,22,22,23,24,25,24,24,24,23,26,24,24,26,24,23,23,24,23,23,23,1372.txt
0,12,24,28,29,15,13,15,15,15,16,0,0,16,17,15,15,15,15,15,17,18,17,17,17,16,18,17,17,18,17,16,16,17,16,15,15,1375.txt
0,30,29,21,22,23,21,21,21,21,18,19,19,24,24,23,22,22,22,23,24,25,24,24,24,23,26,24,24,26,24,23,23,24,23,23,23,1377.txt
29,0,29,21,22,23,21,21,21,21,29,19,19,29,23,21,21,21,21,21,23,24,23,23,23,22,24,23,23,24,23,22,22,23,22,22,22,1379.txt
29,0,18,12,12,23,21,21,21,21,26,30,30,7,7,29,29,29,29,29,8,10,9,10,9,23,10,9,9,9,8,8,7,8,8,7,7,1380.txt
29,12,29,21,22,23,21,21,21,21,29,19,19,25,24,23,22,22,22,23,24,25,24,24,24,23,26,24,24,26,24,23,23,24,23,23,23,1383.txt
29,30,29,21,22,23,21,21,21,21,29,19,19,29,23,21,21,21,21,21,23,24,23,23,23,22,24,23,23,24,23,22,22,23,22,22,22,1389.txt
29,30,29,21,22,23,21,21,21,21,29,19,19,29,23,21,21,21,21,21,23,24,23,23,23,22,24,23,23,24,23,22,22,23,22,22,22,1390.txt
29,30,29,21,22,23,21,21,21,21,29,19,19,29,23,21,21,21,21,21,23,24,23,23,23,22,24,23,23,24,23,22,22,23,22,22,22,1392.txt
22,12,19,13,28,29,27,27,27,27,17,20,20,30,26,22,24,24,24,25,26,27,26,26,26,28,28,26,26,28,26,25,25,26,25,25,25,1395.txt
0,30,26,20,21,21,18,18,18,18,18,23,23,29,23,21,21,21,21,21,23,24,23,23,23,22,24,23,23,24,23,22,22,23,22,22,22,1396.txt
29,30,29,21,22,23,21,21,21,21,29,19,19,29,23,21,21,21,21,21,23,24,23,23,23,22,24,23,23,24,23,22,22,23,22,22,22,1398.txt
0,30,29,21,22,23,21,21,21,21,18,19,19,24,24,23,22,22,22,23,24,25,24,24,24,23,26,24,24,26,24,23,23,24,23,23,23,1400.txt
29,30,29,21,22,23,21,21,21,21,29,19,19,29,23,21,21,21,21,21,23,24,23,23,23,22,24,23,23,24,23,22,22,23,22,22,22,1402.txt
29,30,29,21,22,23,21,21,21,21,29,19,19,24,24,23,22,22,22,23,24,25,24,24,24,23,26,24,24,26,24,23,23,24,23,23,23,1405.txt
29,30,29,21,22,23,21,21,21,21,29,23,23,22,23,21,21,21,21,21,23,24,23,23,23,22,24,23,23,24,23,22,22,23,22,22,22,1407.txt
29,30,29,21,22,23,21,21,21,21,29,19,19,29,23,21,21,21,21,21,23,24,23,23,23,22,24,23,23,24,23,22,22,23,22,22,22,1409.txt
29,17,5,29,30,30,28,25,25,25,22,22,22,29,23,21,21,21,21,21,23,24,23,23,23,22,24,23,23,24,23,22,22,23,22,22,22,1412.txt
29,30,29,21,22,23,21,21,21,21,29,19,19,29,23,21,21,21,21,21,23,24,23,23,23,22,24,23,23,24,23,22,22,23,22,22,22,1416.txt
0,30,29,21,22,23,21,21,21,21,18,19,19,24,24,23,22,22,22,23,24,25,24,24,24,23,26,24,24,26,24,23,23,24,23,23,23,1418.txt
29,30,29,21,22,23,21,21,21,21,29,19,19,29,23,21,21,21,21,21,23,24,23,23,23,22,24,23,23,24,23,22,22,23,22,22,22,1421.txt
0,30,29,21,22,23,21,21,21,21,18,19,19,29,23,21,21,21,21,21,23,24,23,23,23,22,24,23,23,24,23,22,22,23,22,22,22,1422.txt
29,30,29,21,22,23,21,21,21,21,29,19,19,29,23,21,21,21,21,21,23,24,23,23,23,22,24,23,23,24,23,22,22,23,22,22,22,1425.txt
22,12,19,13,28,29,27,27,27,27,17,20,20,23,26,22,24,24,24,25,26,27,26,26,26,28,28,26,26,28,26,25,25,26,25,25,25,1427.txt
29,30,29,21,22,23,21,21,21,21,29,19,19,29,23,21,21,21,21,21,23,24,23,23,23,22,24,23,23,24,23,22,22,23,22,22,22,1429.txt
29,30,29,21,22,23,21,21,21,21,29,19,19,29,23,21,21,21,21,21,23,24,23,23,23,22,24,23,23,24,23,22,22,23,22,22,22,1431.txt
29,30,29,21,22,23,21,21,21,21,29,23,23,29,23,21,21,21,21,21,23,24,23,23,23,22,24,23,23,24,23,22,22,23,22,22,22,1433.txt
29,30,29,21,22,23,21,21,21,21,29,19,19,29,23,21,21,21,21,21,23,24,23,23,23,22,24,23,23,24,23,22,22,23,22,22,22,1434.txt
29,30,29,21,22,23,21,21,21,21,29,19,19,29,23,21,21,21,21,21,23,24,23,23,23,22,24,23,23,24,23,22,22,23,22,22,22,1436.txt
29,30,29,21,22,23,21,21,21,21,29,19,19,29,23,21,21,21,21,21,23,24,23,23,23,22,24,23,23,24,23,22,22,23,22,22,22,1439.txt
29,30,29,21,22,23,21,21,21,21,29,19,19,29,23,21,21,21,21,21,23,24,23,23,23,22,24,23,23,24,23,22,22,23,22,22,22,1441.txt
29,30,29,21,22,23,21,21,21,21,29,19,19,29,23,21,21,21,21,21,23,24,23,23,23,22,24,23,23,24,23,22,22,23,22,22,22,1442.txt
22,12,19,13,28,29,27,27,27,27,17,20,20,23,26,22,24,24,24,25,26,27,26,26,26,28,28,26,26,28,26,25,25,26,25,25,25,1444.txt
0,30,26,20,21,21,18,18,18,18,18,19,19,24,24,23,22,22,22,23,24,25,24,24,24,23,26,24,24,26,24,23,23,24,23,23,23,1446.txt
0,12,0,1,1,0,1,1,1,1,0,0,0,13,14,12,12,12,12,12,14,15,15,15,15,14,15,15,15,15,19,14,14,14,13,13,13,1448.txt
29,30,29,21,22,23,21,21,21,21,29,19,19,29,23,21,21,21,21,21,23,24,23,23,23,22,24,23,23,24,23,22,22,23,22,22,22,1451.txt
29,30,29,21,22,23,21,21,21,21,29,19,19,29,23,21,21,21,21,21,23,24,23,23,23,22,24,23,23,24,23,22,22,23,22,22,22,1453.txt
0,30,26,20,21,21,18,18,18,18,18,19,19,29,23,21,21,21,21,21,23,24,23,23,23,22,24,23,23,24,23,22,22,23,22,22,22,1454.txt
22,30,19,13,28,29,27,27,27,27,17,20,20,22,26,22,24,24,24,25,26,27,26,26,26,28,28,26,26,28,26,25,25,26,25,25,25,1456.txt
29,30,29,21,22,23,21,21,21,21,29,19,19,29,23,21,21,21,21,21,23,24,23,23,23,22,24,23,23,24,23,22,22,23,22,22,22,1458.txt
29,30,29,21,22,23,21,21,21,21,29,19,19,29,23,21,21,21,21,21,23,24,23,23,23,22,24,23,23,24,23,22,22,23,22,22,22,1460.txt
29,30,29,21,22,23,21,21,21,21,29,23,23,29,23,21,21,21,21,21,23,24,23,23,23,22,24,23,23,24,23,22,22,23,22,22,22,1462.txt
29,30,29,21,22,23,21,21,21,21,29,19,19,29,23,21,21,21,21,21,23,24,23,23,23,22,24,23,23,24,23,22,22,23,22,22,22,1465.txt
29,30,29,21,22,23,21,21,21,21,29,19,19,29,23,21,21,21,21,21,23,24,23,23,23,22,24,23,23,24,23,22,22,23,22,22,22,1467.txt
29,30,29,21,22,23,21,21,21,21,15,19,19,29,23,21,21,21,21,21,23,24,23,23,23,22,24,23,23,24,23,22,22,23,22,22,22,1469.txt
0,30,29,21,22,23,21,21,21,21,18,23,23,29,23,21,21,21,21,21,23,24,23,23,23,22,24,23,23,24,23,22,22,23,22,22,22,1470.txt
0,12,0,0,0,0,0,0,30,30,0,0,0,13,14,12,0,0,0,0,0,0,0,0,0,0,0,0,0,0,0,0,0,0,0,0,0,1473.txt
29,30,29,21,22,23,21,21,21,21,29,19,19,29,23,21,21,21,21,21,23,24,23,23,23,22,24,23,23,24,23,22,22,23,22,22,22,1475.txt
0,30,26,20,21,21,18,18,18,18,18,23,23,24,24,23,22,22,22,23,24,25,24,24,24,23,26,24,24,26,24,23,23,24,23,23,23,1477.txt
29,30,29,21,22,23,21,21,21,21,29,19,19,29,23,21,21,21,21,21,23,24,23,23,23,22,24,23,23,24,23,22,22,23,22,22,22,1480.txt
29,19,29,21,22,23,21,21,21,21,29,23,23,29,23,21,21,21,21,21,23,24,23,23,23,22,24,23,23,24,23,22,22,23,22,22,22,1482.txt
29,30,29,21,22,23,21,21,21,21,29,19,19,29,23,21,21,21,21,21,23,24,23,23,23,22,24,23,23,24,23,22,22,23,22,22,22,1484.txt
29,30,29,21,22,23,21,21,21,21,29,19,19,29,23,21,21,21,21,21,23,24,23,23,23,22,24,23,23,24,23,22,22,23,22,22,22,1487.txt
0,30,26,20,21,21,18,18,18,18,18,19,19,29,23,21,21,21,21,21,23,24,23,23,23,22,24,23,23,24,23,22,22,23,22,22,22,1490.txt
0,30,29,21,22,23,21,21,21,21,18,19,19,29,23,21,21,21,21,21,23,24,23,23,23,22,24,23,23,24,23,22,22,23,22,22,22,1491.txt
5,30,29,21,22,23,21,21,21,21,29,19,19,29,23,21,21,21,21,21,23,24,23,23,23,22,24,23,23,24,23,22,22,23,22,22,22,1494.txt
0,14,8,3,3,5,3,30,29,28,30,1,1,1,30,3,3,3,3,3,3,3,3,3,3,29,3,3,3,3,3,30,30,3,30,30,30,1497.txt
29,30,29,21,22,23,21,21,21,21,29,19,19,29,23,21,21,21,21,21,23,24,23,23,23,22,24,23,23,24,23,22,22,23,22,22,22,1499.txt
29,30,29,21,22,23,21,21,21,21,29,19,19,29,23,21,21,21,21,21,23,24,23,23,23,22,24,23,23,24,23,22,22,23,22,22,22,1502.txt
29,30,29,21,22,23,21,21,21,21,29,19,19,24,24,23,22,22,22,23,24,25,24,24,24,23,26,24,24,26,24,23,23,24,23,23,23,1504.txt
0,30,29,21,22,23,21,21,21,21,18,19,19,24,24,23,22,22,22,23,24,25,24,24,24,23,26,24,24,26,24,23,23,24,23,23,23,1505.txt
29,30,29,21,22,23,21,21,21,21,29,19,19,29,23,21,21,21,21,21,23,24,23,23,23,22,24,23,23,24,23,22,22,23,22,22,22,1507.txt
29,19,29,21,22,23,21,21,21,21,29,23,23,29,23,21,21,21,21,21,23,24,23,23,23,22,24,23,23,24,23,22,22,23,22,22,22,1509.txt
29,30,29,21,22,23,21,21,21,21,29,19,19,29,23,21,21,21,21,21,23,24,23,23,23,22,24,23,23,24,23,22,22,23,22,22,22,1511.txt
29,30,29,21,22,23,21,21,21,21,29,19,19,29,23,21,21,21,21,21,23,24,23,23,23,22,24,23,23,24,23,22,22,23,22,22,22,1513.txt
0,30,26,20,21,21,18,18,18,18,18,19,19,24,24,23,22,22,22,23,24,25,24,24,24,23,26,24,24,26,24,23,23,24,23,23,23,1515.txt
29,30,29,21,22,23,21,21,21,21,29,19,19,29,23,21,21,21,21,21,23,24,23,23,23,22,24,23,23,24,23,22,22,23,22,22,22,1518.txt
29,30,29,21,22,23,21,21,21,21,29,19,19,29,23,21,21,21,21,21,23,24,23,23,23,22,24,23,23,24,23,22,22,23,22,22,22,1519.txt
29,30,29,21,22,23,21,21,21,21,29,19,19,24,24,23,22,22,22,23,24,25,24,24,24,23,26,24,24,26,24,23,23,24,23,23,23,1521.txt
29,30,29,21,22,23,21,21,21,21,29,19,19,29,23,21,21,21,21,21,23,24,23,23,23,22,24,23,23,24,23,22,22,23,22,22,22,1523.txt
29,30,29,21,22,23,21,21,21,21,29,19,19,22,23,21,21,21,21,21,23,24,23,23,23,22,24,23,23,24,23,22,22,23,22,22,22,1526.txt
29,30,29,21,22,23,21,21,21,21,29,19,19,24,24,23,22,22,22,23,24,25,24,24,24,23,26,24,24,21,24,23,23,24,23,23,23,1528.txt
29,30,29,21,22,23,21,21,21,21,29,23,23,29,23,21,21,21,21,21,23,24,23,23,23,22,24,23,23,24,23,22,22,23,22,22,22,1529.txt
29,30,29,21,22,23,21,21,21,21,29,19,19,24,24,23,22,22,22,23,24,25,24,24,24,23,26,24,24,26,24,23,23,24,23,23,23,1532.txt
29,30,29,21,22,23,21,21,21,21,29,19,19,24,24,23,22,22,22,23,24,25,24,24,24,23,26,24,24,26,24,23,23,24,23,23,23,1534.txt
0,30,29,21,22,23,21,21,21,21,18,19,19,24,24,23,22,22,22,23,24,25,24,24,24,23,26,24,24,26,24,23,23,24,23,23,23,1536.txt
0,12,26,0,0,21,0,0,30,30,18,19,19,13,24,23,0,0,0,0,0,0,0,0,0,0,0,0,0,0,0,0,0,0,0,0,0,1538.txt
22,12,19,13,28,29,27,27,27,27,17,20,20,28,28,26,26,26,26,26,28,29,28,28,28,27,29,28,28,29,28,27,27,28,27,27,27,1540.txt
22,30,19,13,28,29,27,27,27,27,17,20,20,29,26,22,24,24,24,25,26,27,26,26,26,28,28,26,26,28,26,25,25,26,25,25,25,1543.txt
29,30,29,21,22,23,21,21,21,21,29,19,19,29,23,21,21,21,21,21,23,24,23,23,23,22,24,23,23,24,23,22,22,23,22,22,22,1545.txt
20,24,22,14,14,13,11,11,11,9,8,8,8,9,10,11,11,10,10,10,10,11,11,11,12,11,11,11,11,11,11,10,10,11,10,10,9,1546.txt
0,30,24,28,29,15,13,15,15,15,16,17,17,22,17,15,15,15,15,15,17,18,17,17,17,16,18,17,17,18,17,16,16,17,16,15,15,1548.txt
29,30,29,21,22,23,21,21,21,21,29,19,19,29,23,21,21,21,21,21,23,24,23,23,23,22,24,23,23,24,23,22,22,23,22,22,22,1551.txt
22,12,19,13,28,29,27,27,27,27,17,20,20,23,26,22,24,24,24,25,26,27,26,26,26,28,28,26,26,28,26,25,25,26,25,25,25,1552.txt
29,30,29,21,22,23,21,21,21,21,29,19,19,29,23,21,21,21,21,21,23,24,23,23,23,22,24,23,23,24,23,22,22,23,22,22,22,1556.txt
29,30,29,21,22,23,21,21,21,21,29,19,19,29,23,21,21,21,21,21,23,24,23,23,23,22,24,23,23,24,23,22,22,23,22,22,22,1558.txt
0,30,29,21,22,23,21,21,21,21,18,19,19,21,22,23,19,20,19,19,21,23,22,22,21,30,23,22,22,23,21,20,21,21,20,19,19,1561.txt
22,12,19,13,28,29,27,27,27,27,17,20,20,28,28,26,26,26,26,26,28,29,28,28,28,27,29,28,28,29,28,27,27,28,27,27,27,1563.txt
22,12,19,13,28,29,27,27,27,27,17,20,20,23,26,22,24,24,24,25,26,27,26,26,26,28,28,26,26,28,26,25,25,26,25,25,25,1565.txt
29,30,29,21,22,23,21,21,21,21,29,19,19,29,23,21,21,21,21,21,23,24,23,23,23,22,24,23,23,24,23,22,22,23,22,22,22,1567.txt
29,30,29,21,22,23,21,21,21,21,29,19,19,29,23,21,21,21,21,21,23,24,23,23,23,22,24,23,23,24,23,22,22,23,22,22,22,1570.txt
22,30,19,13,28,29,27,27,27,27,17,20,20,22,26,22,24,24,24,25,26,27,26,26,26,28,28,26,26,28,26,25,25,26,25,25,25,1572.txt
29,30,29,21,22,23,21,21,21,21,29,23,23,29,23,21,21,21,21,21,23,24,23,23,23,22,24,23,23,24,23,22,22,23,22,22,22,1574.txt
0,30,26,20,21,21,18,18,18,18,18,19,19,24,24,23,22,22,22,23,24,25,24,24,24,23,26,24,24,26,24,23,23,24,23,23,23,1581.txt
29,30,29,21,22,23,21,21,21,21,29,19,19,29,23,21,21,21,21,21,23,24,23,23,23,22,24,23,23,24,23,22,22,23,22,22,22,1583.txt
29,30,29,21,22,23,21,21,21,21,29,23,23,29,23,21,21,21,21,21,23,24,23,23,23,22,24,23,23,24,23,22,22,23,22,22,22,1585.txt
0,12,0,1,1,0,1,1,1,1,0,0,0,13,14,12,12,12,12,12,14,15,15,15,15,14,15,15,15,15,19,14,14,14,13,13,13,1587.txt
29,30,29,21,22,23,21,21,21,21,29,19,19,29,23,21,21,21,21,21,23,24,23,23,23,22,24,23,23,24,23,22,22,23,22,22,22,1589.txt
29,30,29,21,22,23,21,21,21,21,29,19,19,29,23,21,21,21,21,21,23,24,23,23,23,22,24,23,23,24,23,22,22,23,22,22,22,1590.txt
29,30,29,21,22,23,21,21,21,21,15,19,19,29,23,21,21,21,21,21,23,24,23,23,23,22,24,23,23,24,23,22,22,23,22,22,22,1594.txt
29,30,29,21,22,23,21,21,21,21,29,19,19,29,23,21,21,21,21,21,23,24,23,23,23,22,24,23,23,24,23,22,22,23,22,22,22,1596.txt
29,30,29,21,22,23,21,21,21,21,29,19,19,24,24,23,22,22,22,23,24,25,24,24,24,23,26,24,24,26,24,23,23,24,23,23,23,1598.txt
29,30,29,21,22,23,21,21,21,21,29,19,19,22,23,21,21,21,21,21,23,24,23,23,23,22,24,23,23,24,23,22,22,23,22,22,22,1600.txt
0,30,26,20,21,21,18,18,18,18,15,23,23,24,24,23,22,22,22,23,24,25,24,24,24,23,26,24,24,26,24,23,23,24,23,23,23,1602.txt
29,12,29,21,22,23,21,21,21,21,15,19,19,23,23,21,21,21,21,21,23,24,23,23,23,22,24,23,23,24,23,22,22,23,22,22,22,1604.txt
0,30,26,20,21,21,18,18,18,18,18,19,19,24,24,23,22,22,22,23,24,25,24,24,24,23,26,24,24,26,24,23,23,24,23,23,23,1605.txt
0,30,29,21,22,23,21,21,21,21,18,19,19,24,24,23,22,22,22,23,24,25,24,24,24,23,26,24,24,26,24,23,23,24,23,23,23,1608.txt
29,30,29,21,22,23,21,21,21,21,29,23,23,29,23,21,21,21,21,21,23,24,23,23,23,22,24,23,23,24,23,22,22,23,22,22,22,1610.txt
29,30,29,21,22,23,21,21,21,21,29,19,19,29,23,21,21,21,21,21,23,24,23,23,23,22,24,23,23,24,23,22,22,23,22,22,22,1612.txt
29,30,29,21,22,23,21,21,21,21,29,19,19,22,23,21,21,21,21,21,23,24,23,23,23,22,24,23,23,24,23,22,22,23,22,22,22,1615.txt
29,30,29,21,22,23,21,21,21,21,29,19,19,22,23,21,21,21,21,21,23,24,23,23,23,22,24,23,23,24,23,22,22,23,22,22,22,1616.txt
29,30,29,21,22,23,21,21,21,21,29,19,19,24,24,23,22,22,22,23,24,25,24,24,24,23,26,24,24,26,24,23,23,24,23,23,23,1618.txt
29,30,29,21,22,23,21,21,21,21,29,19,19,29,23,21,21,21,21,21,23,24,23,23,23,22,24,23,23,24,23,22,22,23,22,22,22,1622.txt
0,30,29,21,22,23,21,21,21,21,18,19,19,24,24,23,22,22,22,23,24,25,24,24,24,23,26,24,24,26,24,23,23,24,23,23,23,1623.txt
29,30,29,21,22,23,21,21,21,21,29,19,19,22,23,21,21,21,21,21,23,24,23,23,23,22,24,23,23,24,23,22,22,23,22,22,22,1626.txt
22,12,19,13,28,29,27,27,27,27,17,12,12,28,28,26,26,26,26,26,28,29,28,28,28,27,29,28,28,29,28,27,27,28,27,27,27,1629.txt
0,30,29,21,22,23,21,21,21,21,18,19,19,29,23,21,21,21,21,21,23,24,23,23,23,22,24,23,23,24,23,22,22,23,22,22,22,1631.txt
29,30,29,21,22,23,21,21,21,21,29,19,19,29,23,21,21,21,21,21,23,24,23,23,23,22,24,23,23,24,23,22,22,23,22,22,22,1632.txt
0,12,0,1,1,0,1,1,1,1,0,0,0,13,14,12,12,12,12,12,14,15,15,15,15,14,15,15,15,15,19,14,14,14,13,13,13,1637.txt
0,30,29,21,22,23,21,21,21,21,18,19,19,29,23,21,21,21,21,21,23,24,23,23,23,22,24,23,23,24,23,22,22,23,22,22,22,1639.txt
29,30,29,21,22,23,21,21,21,21,29,19,19,29,23,21,21,21,21,21,23,24,23,23,23,22,24,23,23,24,23,22,22,23,22,22,22,1641.txt
22,12,19,13,28,29,27,27,27,27,17,24,24,30,26,22,24,24,24,25,26,27,26,26,26,28,28,26,26,28,26,25,25,26,25,25,25,1643.txt
29,30,29,21,22,23,21,21,21,21,29,19,19,24,24,23,22,22,22,23,24,25,24,24,24,23,26,24,24,26,24,23,23,24,23,23,23,1645.txt
0,30,26,20,21,21,18,18,18,18,18,19,19,29,23,21,21,21,21,21,23,24,23,23,23,22,24,23,23,24,23,22,22,23,22,22,22,1647.txt
29,30,29,21,22,23,21,21,21,21,29,19,19,29,23,21,21,21,21,21,23,24,23,23,23,22,24,23,23,24,23,22,22,23,22,22,22,1650.txt
29,30,29,21,22,23,21,21,21,21,29,19,19,29,23,21,21,21,21,21,23,24,23,23,23,22,24,23,23,24,23,22,22,23,22,22,22,1652.txt
29,30,29,21,22,23,21,21,21,21,29,23,23,22,23,21,21,21,21,21,23,24,23,23,23,22,24,23,23,24,23,22,22,23,22,22,22,1654.txt
0,12,0,1,1,0,1,1,1,1,0,0,0,13,14,12,12,12,12,12,14,15,15,15,15,14,15,15,15,15,19,14,14,14,13,13,13,1655.txt
29,30,29,21,22,23,21,21,21,21,29,19,19,24,24,23,22,22,22,23,24,25,24,24,24,23,26,24,24,26,24,23,23,24,23,23,23,1657.txt
29,30,29,21,22,23,21,21,21,21,29,19,19,29,23,21,21,21,21,21,23,24,23,23,23,22,24,23,23,24,23,22,22,23,22,22,22,1660.txt
29,30,29,21,22,23,21,21,21,21,29,19,19,29,23,21,21,21,21,21,23,24,23,23,23,22,24,23,23,24,23,22,22,23,22,22,22,1662.txt
29,30,29,21,22,23,21,21,21,21,29,23,23,29,23,21,21,21,21,21,23,24,23,23,23,22,24,23,23,24,23,22,22,23,22,22,22,1663.txt
0,30,26,20,21,21,18,18,18,18,18,19,19,24,24,23,22,22,22,23,24,25,24,24,24,23,26,24,24,26,24,23,23,24,23,23,23,1666.txt
0,30,29,21,22,23,21,21,21,21,18,23,23,24,24,23,22,22,22,23,24,25,24,24,24,23,26,24,24,26,24,23,23,24,23,23,23,1667.txt
22,12,19,13,28,29,27,27,27,27,17,20,20,23,26,22,24,24,24,25,26,27,26,26,26,28,28,26,26,28,26,25,25,26,25,25,25,1669.txt
29,30,29,21,22,23,21,21,21,21,29,19,19,29,23,21,21,21,21,21,23,24,23,23,23,22,24,23,23,24,23,22,22,23,22,22,22,1671.txt
29,30,29,21,22,23,21,21,21,21,29,19,19,29,23,21,21,21,21,21,23,24,23,23,23,22,24,23,23,24,23,22,22,23,22,22,22,1673.txt
29,30,29,21,22,23,21,21,21,21,29,23,23,29,23,21,21,21,21,21,23,24,23,23,23,22,24,23,23,24,23,22,22,23,22,22,22,1676.txt
29,30,29,21,22,23,21,21,21,21,29,19,19,29,23,21,21,21,21,21,23,24,23,23,23,22,24,23,23,24,23,22,22,23,22,22,22,1677.txt
29,30,29,21,22,23,21,21,21,21,29,23,23,29,23,21,21,21,21,21,23,24,23,23,23,22,24,23,23,24,23,22,22,23,22,22,22,1680.txt
0,19,26,20,21,21,18,18,18,18,18,23,23,24,24,20,22,22,22,23,24,25,24,24,24,23,26,24,24,26,24,23,23,24,23,23,23,1682.txt
22,12,19,13,28,29,27,27,27,27,17,20,20,23,26,22,24,24,24,25,26,27,26,26,26,28,28,26,26,28,26,25,25,26,25,25,25,1684.txt
22,12,19,13,28,29,27,27,27,27,17,20,20,23,26,22,24,24,24,25,26,27,26,26,26,28,28,26,26,28,26,25,25,26,25,25,25,1686.txt
29,30,29,21,22,23,21,21,21,21,29,19,19,22,23,21,21,21,21,21,23,24,23,23,23,22,24,23,23,24,23,22,22,23,22,22,22,1692.txt
29,30,29,21,22,23,21,21,21,21,29,19,19,22,23,21,21,21,21,21,23,24,23,23,23,22,24,23,23,24,23,22,22,23,22,22,22,1694.txt
22,12,19,13,28,29,27,27,27,27,17,20,20,25,25,24,23,23,23,24,25,26,25,25,25,24,27,25,25,27,15,24,24,25,24,24,24,1696.txt
29,30,29,21,22,23,21,21,21,21,29,23,23,29,23,21,21,21,21,21,23,24,23,23,23,22,24,23,23,24,23,22,22,23,22,22,22,1698.txt
22,30,24,28,29,28,26,26,26,26,23,20,20,22,26,22,24,24,24,25,26,27,26,26,26,28,28,26,26,28,26,25,25,26,25,25,25,1699.txt
0,12,0,1,1,0,1,1,1,1,0,0,0,0,0,0,1,1,1,1,1,1,1,1,1,1,1,1,1,1,1,1,1,1,1,1,1,1701.txt
0,30,29,21,22,23,21,21,21,21,18,19,19,24,24,23,22,22,22,23,24,25,24,24,24,23,26,24,24,26,24,23,23,24,23,23,23,1705.txt
29,30,29,21,22,23,21,21,21,21,29,19,19,29,23,21,21,21,21,22,23,24,23,23,23,22,25,23,23,25,23,22,22,23,22,22,22,1707.txt
29,30,29,21,22,23,21,21,21,21,15,23,23,29,23,21,21,21,21,21,23,24,23,23,23,22,24,23,23,24,23,22,22,23,22,22,22,1709.txt
29,30,29,21,22,23,21,21,21,21,29,19,19,29,23,21,21,21,21,21,23,24,23,23,23,22,24,23,23,24,23,22,22,23,22,22,22,1715.txt
0,12,0,1,1,0,1,1,1,1,0,17,17,13,14,12,12,12,12,12,14,15,15,15,15,14,15,15,15,15,19,14,14,14,13,13,13,1717.txt
29,14,8,3,3,5,3,30,29,28,30,1,1,1,30,3,3,3,3,3,3,3,3,3,3,29,3,3,3,3,3,30,30,3,30,30,30,1720.txt
29,30,29,21,22,23,21,21,21,21,29,19,19,22,23,21,21,21,21,21,23,24,23,23,23,22,24,23,23,24,23,22,22,23,22,22,22,1723.txt
29,30,29,21,22,23,21,21,21,21,29,19,19,29,23,21,21,21,21,21,23,24,23,23,23,22,24,23,23,24,23,22,22,23,22,22,22,1725.txt
29,30,29,21,22,23,21,21,21,21,29,19,19,22,23,21,21,21,21,21,23,24,23,23,23,22,24,23,23,24,23,22,22,23,22,22,22,1727.txt
0,30,26,20,21,21,18,18,18,18,18,19,19,24,24,23,22,22,22,23,24,25,24,24,24,23,26,24,24,26,24,23,23,24,23,23,23,1728.txt
29,30,29,21,22,23,21,21,21,21,29,19,19,29,23,21,21,21,21,21,23,24,23,23,23,22,24,23,23,24,23,22,22,23,22,22,22,1732.txt
29,30,29,21,22,23,21,21,21,21,29,19,19,29,23,21,21,21,21,21,23,24,23,23,23,22,24,23,23,24,23,22,22,23,22,22,22,1734.txt
0,12,0,1,1,0,1,1,1,1,0,0,0,20,21,12,19,19,19,19,21,23,22,22,21,20,22,21,22,23,21,20,20,21,20,19,19,1735.txt
0,12,29,21,22,23,21,21,21,21,18,19,19,13,24,23,22,22,22,23,24,25,24,24,24,23,26,24,24,26,24,23,23,24,23,23,23,1737.txt
29,30,29,21,22,23,21,21,21,21,29,19,19,29,23,21,21,21,21,21,23,24,23,23,23,22,24,23,23,24,23,22,22,23,22,22,22,1739.txt
0,30,26,20,21,21,18,18,18,18,18,19,19,29,23,21,21,21,21,21,23,24,23,23,23,22,24,23,23,24,23,22,22,23,22,22,22,1744.txt
29,30,29,21,22,23,21,21,21,21,29,19,19,29,23,21,21,21,21,21,23,24,23,23,23,22,24,23,23,24,23,22,22,23,22,22,22,1745.txt
22,12,19,13,28,29,27,27,27,27,17,24,24,25,25,24,23,23,23,24,25,26,25,25,25,24,27,25,25,27,25,24,24,25,24,24,24,1747.txt
0,12,0,1,1,0,1,1,1,1,0,0,0,13,14,12,12,12,12,12,14,15,15,15,15,14,15,15,15,15,19,14,14,14,13,13,13,1749.txt
23,30,26,20,21,21,18,18,18,18,18,23,23,29,23,21,21,21,21,21,23,24,23,23,23,22,24,23,23,24,23,22,22,23,22,22,22,1751.txt
0,30,26,20,21,21,18,18,18,18,18,19,19,24,24,23,22,22,22,23,24,25,24,24,24,23,26,24,24,26,24,23,23,24,23,23,23,1755.txt
29,30,29,21,22,23,21,21,21,21,29,19,19,29,23,21,21,21,21,21,23,24,23,23,23,22,24,23,23,24,23,22,22,23,22,22,22,1759.txt
0,30,26,20,21,21,18,18,18,18,18,23,23,29,23,21,21,21,21,21,23,24,23,23,23,22,24,23,23,24,23,22,22,23,22,22,22,1762.txt
29,19,29,21,22,23,21,21,21,21,29,19,19,29,23,21,21,21,21,21,23,24,23,23,23,22,24,23,23,24,23,22,22,23,22,22,22,1764.txt
0,12,0,1,1,0,1,1,1,1,0,0,0,13,14,12,12,12,12,12,14,15,15,15,15,14,15,15,15,15,19,14,14,14,13,13,13,1765.txt
22,15,3,4,4,6,4,4,4,4,2,2,2,3,2,4,4,4,4,4,4,4,4,5,5,5,5,5,5,5,5,4,4,5,4,4,4,1769.txt
29,30,29,21,22,23,21,21,21,21,29,23,23,29,23,21,21,21,21,21,23,24,23,23,23,22,24,23,23,24,23,22,22,23,22,22,22,1771.txt
29,30,29,21,22,23,21,21,21,21,29,23,23,29,23,21,21,21,21,21,23,24,23,23,23,22,24,23,23,24,23,22,22,23,22,22,22,1774.txt
29,30,29,21,22,23,21,21,21,21,29,19,19,29,23,21,21,21,21,21,23,24,23,23,23,22,24,23,23,24,23,22,22,23,22,22,22,1775.txt
29,30,29,21,22,23,21,21,21,21,29,19,19,29,23,21,21,21,21,21,23,24,23,23,23,22,24,23,23,24,23,22,22,23,22,22,22,1778.txt
0,12,0,1,1,0,1,1,1,1,0,0,0,13,14,12,12,12,12,12,14,15,15,15,15,14,15,15,15,15,19,14,14,14,13,13,13,1780.txt
29,30,29,21,22,23,21,21,21,21,29,23,23,29,23,21,21,21,21,21,23,24,23,23,23,22,24,23,23,24,23,22,22,23,22,22,22,1783.txt
29,30,29,21,22,23,21,21,21,21,29,19,19,22,23,21,21,21,21,21,23,24,23,23,23,22,24,23,23,24,23,22,22,23,22,22,22,1784.txt
29,30,29,21,22,23,21,21,21,21,29,19,19,29,23,21,21,21,21,21,23,24,23,23,23,22,24,23,23,24,23,22,22,23,22,22,22,1787.txt
0,30,29,21,22,23,21,21,21,21,18,19,19,24,24,23,22,22,22,23,24,25,24,24,24,23,26,24,24,26,24,23,23,24,23,23,23,1789.txt
29,30,29,21,22,23,21,21,21,21,29,19,19,29,23,21,21,21,21,21,23,24,23,23,23,22,24,23,23,24,23,22,22,23,22,22,22,1791.txt
0,30,26,20,21,21,18,18,18,18,18,19,19,24,24,23,22,22,22,23,24,25,24,24,24,23,26,24,24,26,24,23,23,24,23,23,23,1794.txt
29,30,29,21,22,23,21,21,21,21,29,19,19,29,23,21,21,21,21,21,23,24,23,23,23,22,24,23,23,24,23,22,22,23,22,22,22,1798.txt
0,30,10,21,22,4,21,21,21,21,18,19,19,24,24,2,22,22,22,23,24,25,24,24,24,23,26,24,24,26,24,23,23,24,23,23,23,1800.txt
22,12,19,13,28,29,27,27,27,27,17,20,20,28,28,26,26,26,26,24,28,29,28,28,28,27,27,28,28,27,28,27,27,28,27,27,27,1801.txt
22,12,19,10,28,29,27,27,27,27,17,20,20,23,26,22,24,24,24,25,26,27,26,26,26,28,28,26,26,28,26,25,25,26,25,25,25,1803.txt
0,12,0,1,1,0,1,1,1,1,0,0,0,13,14,12,12,12,12,12,14,15,15,15,15,14,15,15,15,15,19,14,14,14,13,13,13,1805.txt
29,30,29,21,22,23,21,21,21,21,29,19,19,29,23,21,21,21,21,21,23,24,23,23,23,22,24,23,23,24,23,22,22,23,22,22,22,1808.txt
0,12,0,1,1,0,1,1,1,1,0,0,0,0,0,0,1,1,1,1,1,1,1,1,1,1,1,1,1,1,1,1,1,1,1,1,1,1810.txt
0,30,26,20,21,21,18,18,18,18,18,19,19,24,24,23,22,22,22,23,24,25,24,24,24,23,26,24,24,26,24,23,23,24,23,23,23,1812.txt
29,30,29,21,22,23,21,21,21,21,29,19,19,29,23,21,21,21,21,21,23,24,23,23,23,22,24,23,23,24,23,22,22,23,22,22,22,1814.txt
29,30,29,21,22,23,21,21,21,21,29,19,19,29,23,21,21,21,21,21,23,24,23,23,23,22,24,23,23,24,23,22,22,23,22,22,22,1816.txt
29,30,29,21,22,23,21,21,21,21,29,19,19,24,24,23,22,22,22,23,24,25,24,24,24,23,26,24,24,21,24,23,23,24,23,23,23,1818.txt
0,30,26,20,21,21,18,18,18,18,18,23,23,29,23,21,21,21,21,21,23,24,23,23,23,22,24,23,23,24,23,22,22,23,22,22,22,1820.txt
29,30,29,21,22,23,21,21,21,21,29,23,23,24,24,23,22,22,22,23,24,25,24,24,24,23,26,24,24,26,24,23,23,24,23,23,23,1824.txt
29,30,29,21,22,23,21,21,21,21,29,19,19,29,23,21,21,21,21,21,23,24,23,23,23,22,24,23,23,24,23,22,22,23,22,22,22,1825.txt
0,30,29,21,22,23,21,21,21,21,18,19,19,24,24,23,22,22,22,23,24,25,24,24,24,23,26,24,24,26,24,23,23,24,23,23,23,1827.txt
29,30,29,21,22,23,21,21,21,21,29,19,19,29,23,21,21,21,21,21,23,24,23,23,23,22,24,23,23,24,23,22,22,23,22,22,22,1830.txt
29,30,29,21,22,23,21,21,21,21,29,19,19,29,23,21,21,21,21,21,23,24,23,23,23,22,24,23,23,24,23,22,22,23,22,22,22,1831.txt
29,30,29,21,22,23,21,21,21,21,29,19,19,29,23,21,21,21,21,22,23,24,23,23,23,22,25,23,23,25,23,22,22,23,22,22,22,1833.txt
22,12,19,13,28,29,27,27,27,27,17,20,20,25,25,24,23,23,23,24,25,26,25,25,25,24,27,25,25,27,25,24,24,25,24,24,24,1836.txt
29,30,29,21,22,23,21,21,21,21,29,19,19,29,23,21,21,21,21,21,23,24,23,23,23,22,24,23,23,24,23,22,22,23,22,22,22,1838.txt
29,30,21,17,18,19,17,14,13,14,10,11,10,12,23,21,21,21,21,21,13,14,14,14,14,13,14,14,14,14,13,12,12,13,12,12,12,1840.txt
29,30,29,21,22,23,21,21,21,21,29,19,19,29,23,21,21,21,21,21,23,24,23,23,23,22,24,23,23,24,23,22,22,23,22,22,22,1842.txt
29,30,29,21,22,23,21,21,21,21,29,19,19,29,23,21,21,21,21,21,23,24,23,23,23,22,24,23,23,24,23,22,22,23,22,22,22,1844.txt
29,30,29,21,22,23,21,21,21,21,29,19,19,29,23,21,21,21,21,21,23,24,23,23,23,22,24,23,23,24,23,22,22,23,22,22,22,1847.txt
29,30,29,21,22,23,21,21,21,21,29,19,19,29,23,21,21,21,21,21,23,24,23,23,23,22,24,23,23,24,23,22,22,23,22,22,22,1850.txt
29,30,29,21,22,23,21,21,21,21,29,19,19,29,23,21,21,21,21,21,23,24,23,23,23,22,24,23,23,24,23,22,22,23,22,22,22,1851.txt
29,30,29,21,22,23,21,21,21,21,29,19,19,29,23,21,21,21,21,21,23,24,23,23,23,22,24,23,23,24,23,22,22,23,22,22,22,1854.txt
29,30,29,21,22,23,21,21,21,21,29,19,19,29,23,21,21,21,21,21,23,24,23,23,23,22,24,23,23,24,23,22,22,23,22,22,22,1855.txt
29,30,29,21,22,23,21,21,21,21,29,19,19,29,23,21,21,21,21,21,23,24,23,23,23,22,24,23,23,24,23,22,22,23,22,22,22,1858.txt
29,30,29,21,22,23,21,21,21,21,29,19,19,29,23,21,21,21,21,21,23,24,23,23,23,22,24,23,23,24,23,22,22,23,22,22,22,1860.txt
22,12,19,13,28,29,27,27,27,27,17,25,12,25,25,24,23,23,23,26,25,26,25,25,25,24,29,25,25,29,25,24,24,25,24,24,24,1861.txt
22,12,19,13,28,29,27,27,27,27,17,20,20,25,25,24,23,23,23,24,25,26,25,25,25,24,27,25,25,27,25,24,24,25,24,24,24,1863.txt
22,12,19,13,28,29,27,27,27,27,17,20,20,23,26,22,24,24,24,25,26,27,26,26,26,28,28,26,26,28,26,25,25,26,25,25,25,1865.txt
29,30,29,21,22,23,21,21,21,21,29,23,23,29,23,21,21,21,21,21,23,24,23,23,23,22,24,23,23,24,23,22,22,23,22,22,22,1867.txt
29,30,29,21,22,23,21,21,21,21,29,19,19,29,23,21,21,21,21,21,23,24,23,23,23,22,24,23,23,24,23,22,22,23,22,22,22,1870.txt
29,30,29,21,22,23,21,21,21,21,29,19,19,29,23,21,21,21,21,21,23,24,23,23,23,22,24,23,23,24,23,22,22,23,22,22,22,1872.txt
22,12,19,13,28,29,27,27,27,27,17,20,20,23,26,22,24,24,24,25,26,27,26,26,26,28,28,26,26,28,26,25,25,26,25,25,25,1874.txt
29,30,29,21,22,23,21,21,21,21,29,19,19,29,23,21,21,21,21,21,23,24,23,23,23,22,24,23,23,24,23,22,22,23,22,22,22,1876.txt
29,30,29,21,22,23,21,21,21,21,29,19,19,24,24,23,22,22,22,23,24,25,24,24,24,23,26,24,24,26,24,23,23,24,23,23,23,1879.txt
29,30,29,21,22,23,21,21,21,21,29,19,19,29,23,21,21,21,21,21,23,24,23,23,23,22,24,23,23,24,23,22,22,23,22,22,22,1880.txt
0,12,0,1,1,0,1,1,1,1,0,0,0,13,14,12,12,12,12,1,14,15,15,15,15,14,1,15,15,1,19,14,14,14,13,13,13,1884.txt
29,30,29,21,22,23,21,21,21,21,29,19,19,29,23,21,21,21,21,21,23,24,23,23,23,22,24,23,23,24,23,22,22,23,22,22,22,1885.txt
29,30,29,21,22,23,21,21,21,21,29,19,19,29,23,21,21,21,21,21,23,24,23,23,23,22,24,23,23,24,23,22,22,23,22,22,22,1887.txt
29,30,29,21,22,23,21,21,21,21,29,19,19,29,23,21,21,21,21,21,23,24,23,23,23,22,24,23,23,24,23,22,22,23,22,22,22,1890.txt
29,30,29,21,22,23,21,21,21,21,29,19,19,29,23,21,21,21,21,21,23,24,23,23,23,22,24,23,23,24,23,22,22,23,22,22,22,1892.txt
29,30,29,21,22,23,21,21,21,21,29,19,19,29,23,21,21,21,21,21,23,24,23,23,23,22,24,23,23,24,23,22,22,23,22,22,22,1894.txt
0,30,26,20,21,21,18,18,18,18,18,19,19,24,24,23,22,22,22,23,24,25,24,24,24,23,26,24,24,26,24,23,23,24,23,23,23,1898.txt
0,30,29,21,22,23,21,21,21,21,18,19,19,29,23,21,21,21,21,21,23,24,23,23,23,22,24,23,23,24,23,22,22,23,22,22,22,1900.txt
29,12,29,21,22,23,21,21,21,21,29,19,19,30,23,21,21,21,21,21,23,24,23,23,23,22,24,23,23,24,23,22,22,23,22,22,22,1901.txt
29,30,29,21,22,23,21,21,21,21,29,19,19,29,23,21,21,21,21,21,23,24,23,23,23,22,24,23,23,24,23,22,22,23,22,22,22,1903.txt
29,30,29,21,22,23,21,21,21,21,29,23,23,29,23,21,21,21,21,21,23,24,23,23,23,22,24,23,23,24,23,22,22,23,22,22,22,1906.txt
0,30,26,20,21,21,18,18,18,18,18,19,19,24,24,23,22,22,22,23,24,25,24,24,24,23,26,24,24,26,24,23,23,24,23,23,23,1908.txt
0,30,26,20,21,21,18,18,18,18,18,19,19,29,23,21,21,21,21,21,23,24,23,23,23,22,24,23,23,24,23,22,22,23,22,22,22,1911.txt
29,17,7,29,30,30,28,25,25,25,22,22,22,29,23,21,21,21,21,21,23,24,23,23,23,22,24,23,23,24,23,22,22,23,22,22,22,1913.txt
29,30,29,21,22,23,21,21,21,21,29,19,19,29,23,21,21,21,21,21,23,24,23,23,23,22,24,23,23,24,23,22,22,23,22,22,22,1914.txt
29,30,21,17,18,19,17,14,13,14,10,11,10,12,23,21,21,21,21,21,13,14,14,14,14,13,14,14,14,13,13,12,11,12,12,12,12,1916.txt
29,12,29,21,22,23,21,21,21,21,29,19,19,30,23,21,21,21,21,21,23,24,23,23,23,22,24,23,23,24,23,22,22,23,22,22,22,1919.txt
29,30,29,21,22,23,21,21,21,21,29,23,23,22,23,21,21,21,21,21,23,24,23,23,23,22,24,23,23,24,23,22,22,23,22,22,22,1921.txt
29,30,29,21,22,23,21,21,21,21,29,19,19,29,23,21,21,21,21,21,23,24,23,23,23,22,24,23,23,24,23,22,22,23,22,22,22,1923.txt
29,30,29,21,22,23,21,21,21,21,29,19,19,29,23,21,21,21,21,21,23,24,23,23,23,22,24,23,23,24,23,22,22,23,22,22,22,1926.txt
29,30,29,21,22,23,21,21,21,21,29,19,19,29,23,21,21,21,21,21,23,24,23,23,23,22,24,23,23,24,23,22,22,23,22,22,22,1928.txt
29,30,29,21,22,23,21,21,21,21,29,19,19,29,23,21,21,21,21,21,23,24,23,23,23,22,24,23,23,24,23,22,22,23,22,22,22,1930.txt
29,30,29,21,22,23,21,21,21,21,29,19,19,29,23,21,21,21,21,21,23,24,23,23,23,22,24,23,23,24,23,22,22,23,22,22,22,1932.txt
0,30,26,20,21,21,18,18,18,18,18,19,19,24,24,23,22,22,22,23,24,25,24,24,24,23,26,24,24,26,24,23,23,24,23,23,23,1934.txt
29,30,29,21,22,23,21,21,21,21,29,19,19,29,23,21,21,21,21,21,23,24,23,23,23,22,24,23,23,24,23,22,22,23,22,22,22,1937.txt
29,30,29,21,22,23,21,21,21,21,29,19,19,29,23,21,21,21,21,21,23,24,23,23,23,22,24,23,23,24,23,22,22,23,22,22,22,1938.txt
0,30,29,21,22,23,21,21,21,21,18,23,23,29,23,21,21,21,21,21,23,24,23,23,23,22,24,23,23,24,23,22,22,23,22,22,22,1941.txt
29,12,29,21,22,23,21,21,21,21,29,19,19,30,23,21,21,21,21,21,23,24,23,23,23,22,24,23,23,24,23,22,22,23,22,22,22,1942.txt
29,30,29,21,22,23,21,21,21,21,29,19,19,29,23,21,21,21,21,21,23,24,23,23,23,22,24,23,23,24,23,22,22,23,22,22,22,1944.txt
29,30,29,21,22,23,21,21,21,21,29,19,19,29,23,21,21,21,21,21,23,24,23,23,23,22,24,23,23,24,23,22,22,23,22,22,22,1947.txt
29,30,29,21,22,23,21,21,21,21,29,19,19,29,23,21,21,21,21,21,23,24,23,23,23,22,24,23,23,24,23,22,22,23,22,22,22,1948.txt
29,30,29,21,22,23,21,21,21,21,29,19,19,29,23,21,21,21,21,21,23,24,23,23,23,22,24,23,23,24,23,22,22,23,22,22,22,1951.txt
29,30,29,21,22,23,21,21,21,21,29,19,19,29,23,21,21,21,21,21,23,24,23,23,23,22,24,23,23,24,23,22,22,23,22,22,22,1952.txt
29,30,29,21,22,23,21,21,21,21,29,23,23,29,23,21,21,21,21,21,23,24,23,23,23,22,24,23,23,24,23,22,22,23,22,22,22,1954.txt
29,30,29,21,22,23,21,21,21,21,29,19,19,29,23,21,21,21,21,21,23,24,23,23,23,22,24,23,23,24,23,22,22,23,22,22,22,1956.txt
29,30,29,21,22,23,21,21,21,21,29,19,19,29,23,21,21,21,21,21,23,24,23,23,23,22,24,23,23,24,23,22,22,23,22,22,22,1959.txt
29,30,29,21,22,23,21,21,21,21,29,19,19,29,23,21,21,21,21,21,23,24,23,23,23,22,24,23,23,24,23,22,22,23,22,22,22,1961.txt
29,30,29,21,22,23,21,21,21,21,29,23,23,29,23,21,21,21,21,21,23,24,23,23,23,22,24,23,23,24,23,22,22,23,22,22,22,1964.txt
29,30,29,21,22,23,21,21,21,21,29,19,19,29,23,21,21,21,21,21,23,24,23,23,23,22,24,23,23,24,23,22,22,23,22,22,22,1965.txt
22,12,19,13,28,29,27,27,27,27,17,24,24,23,26,22,24,24,24,25,26,27,26,26,26,28,28,26,26,28,26,25,25,26,25,25,25,1970.txt
29,30,29,21,22,23,21,21,21,21,29,19,19,29,23,21,21,21,21,21,23,24,23,23,23,22,24,23,23,24,23,22,22,23,22,22,22,1973.txt
29,30,29,21,22,23,21,21,21,21,29,19,19,24,24,23,22,22,22,23,24,25,24,24,24,23,26,24,24,26,24,23,23,24,23,23,23,1974.txt
29,19,29,21,22,23,21,21,21,21,29,23,23,29,23,21,21,21,21,21,23,24,23,23,23,22,24,23,23,24,23,22,22,23,22,22,22,1976.txt
29,30,29,21,22,23,21,21,21,21,29,19,19,29,23,21,21,21,21,21,23,24,23,23,23,22,24,23,23,24,23,22,22,23,22,22,22,1979.txt
29,30,29,21,22,23,21,21,21,21,29,19,19,29,23,21,21,21,21,21,23,24,23,23,23,22,24,23,23,24,23,22,22,23,22,22,22,1981.txt
29,30,29,21,22,23,21,21,21,21,29,19,19,29,23,21,21,21,21,21,23,24,23,23,23,22,24,23,23,24,23,22,22,23,22,22,22,1983.txt
0,19,5,21,22,23,21,21,21,21,18,19,19,29,23,21,21,21,21,21,23,24,23,23,23,22,24,23,23,24,23,22,22,23,22,22,22,1984.txt
29,17,7,17,18,19,17,14,13,14,10,11,10,12,23,21,21,21,21,21,13,14,14,14,14,13,14,14,14,13,13,12,11,12,12,12,12,1986.txt
29,30,29,21,22,23,21,21,21,21,29,19,19,24,24,23,22,22,22,23,24,25,24,24,24,23,26,24,24,26,24,23,23,24,23,23,23,1989.txt
22,12,19,13,28,29,27,27,27,27,17,20,20,30,26,22,24,24,24,25,26,27,26,26,26,28,28,26,26,28,26,25,25,26,25,25,25,1991.txt
29,30,29,21,22,23,21,21,21,21,29,19,19,29,23,21,21,21,21,21,23,24,23,23,23,22,24,23,23,24,23,22,22,23,22,22,22,1992.txt
29,30,29,21,22,23,21,21,21,21,29,19,19,29,23,21,21,21,21,21,23,24,23,23,23,22,24,23,23,24,23,22,22,23,22,22,22,1995.txt
29,30,29,21,22,23,21,21,21,21,29,19,19,29,23,21,21,21,21,21,23,24,23,23,23,22,24,23,23,24,23,22,22,23,22,22,22,1997.txt
0,12,29,21,22,23,21,21,21,21,18,23,23,13,24,23,22,22,22,23,24,25,24,24,24,23,26,24,24,26,24,23,23,24,23,23,23,1999.txt
29,30,29,21,22,23,21,21,21,21,29,19,19,24,24,23,22,22,22,23,24,25,24,24,24,23,26,24,24,26,24,23,23,24,23,23,23,2001.txt
29,30,29,21,22,23,21,21,21,21,29,19,19,29,23,21,21,21,21,21,23,24,23,23,23,22,24,23,23,24,23,22,22,23,22,22,22,2005.txt
0,12,0,1,1,0,1,1,1,1,0,0,0,13,14,12,12,12,12,12,14,15,15,15,15,14,15,15,15,15,19,14,14,14,13,13,13,2007.txt
29,30,29,21,22,23,21,21,21,21,29,19,19,29,23,21,21,21,21,21,23,24,23,23,23,22,24,23,23,24,23,22,22,23,22,22,22,2008.txt
29,24,29,21,22,23,21,21,21,21,29,23,23,29,23,21,21,21,21,21,23,24,23,23,23,22,24,23,23,24,23,22,22,23,22,22,22,2012.txt
29,30,21,17,18,19,17,14,13,14,10,11,10,12,23,21,21,21,21,21,13,14,14,14,14,13,14,14,14,13,13,12,11,12,12,12,12,2015.txt
29,30,29,21,22,23,21,21,21,21,29,19,19,29,23,21,21,21,21,21,23,24,23,23,23,22,24,23,23,24,23,22,22,23,22,22,22,2017.txt
29,30,29,21,22,23,21,21,21,21,29,23,23,29,23,21,21,21,21,21,23,24,23,23,23,22,24,23,23,24,23,22,22,23,22,22,22,2020.txt
29,30,29,21,22,23,21,21,21,21,29,19,19,29,23,21,21,21,21,21,23,24,23,23,23,22,24,23,23,24,23,22,22,23,22,22,22,2022.txt
29,30,29,21,22,23,21,21,21,21,29,19,19,24,24,23,22,22,22,23,24,25,24,24,24,23,26,24,24,26,24,23,23,24,23,23,23,2024.txt
29,30,29,21,22,23,21,21,21,21,29,19,19,29,23,21,21,21,21,21,23,24,23,23,23,22,24,23,23,24,23,22,22,23,22,22,22,2026.txt
29,30,29,21,22,23,21,21,21,21,29,19,19,29,23,21,21,21,21,21,23,24,23,23,23,22,24,23,23,24,23,22,22,23,22,22,22,2029.txt
0,12,0,1,1,0,1,1,1,1,0,15,15,13,14,12,12,12,12,12,14,15,15,15,15,14,15,15,15,15,19,14,14,14,13,13,13,2031.txt
29,30,29,21,22,23,21,21,21,21,29,23,23,29,23,21,21,21,21,21,23,24,23,23,23,22,24,23,23,24,23,22,22,23,22,22,22,2032.txt
29,30,29,21,22,23,21,21,21,21,29,19,19,29,23,21,21,21,21,21,23,24,23,23,23,22,24,23,23,24,23,22,22,23,22,22,22,2034.txt
29,12,29,21,22,23,21,21,21,21,29,23,23,30,23,21,21,21,21,21,23,24,23,23,23,22,24,23,23,24,23,22,22,23,22,22,22,2037.txt
29,30,29,21,22,23,21,21,21,21,29,19,19,24,24,23,22,22,22,23,24,25,24,24,24,23,26,24,24,26,24,23,23,24,23,23,23,2038.txt
0,30,26,20,21,21,18,18,18,18,18,19,19,24,24,23,22,22,22,23,24,25,24,24,24,23,26,24,24,26,24,23,23,24,23,23,23,2040.txt
29,30,29,21,22,23,21,21,21,21,29,19,19,29,23,21,21,21,21,21,23,24,23,23,23,22,24,23,23,24,23,22,22,23,22,22,22,2043.txt
22,12,19,13,28,29,27,27,27,27,17,20,20,30,26,22,24,24,24,25,26,27,26,26,26,28,28,26,26,28,26,25,25,26,25,25,25,2045.txt
29,30,29,21,22,23,21,21,21,21,29,23,23,29,23,21,21,21,21,21,23,24,23,23,23,22,24,23,23,24,23,22,22,23,22,22,22,2049.txt
29,30,29,21,22,23,21,21,21,21,29,19,19,29,23,21,21,21,21,21,23,24,23,23,23,22,24,23,23,24,23,22,22,23,22,22,22,2052.txt
29,30,29,21,22,23,21,21,21,21,29,19,19,29,23,21,21,21,21,21,23,24,23,23,23,22,24,23,23,24,23,22,22,23,22,22,22,2053.txt
29,30,29,21,22,23,21,21,21,21,29,19,19,29,23,21,21,21,21,21,23,24,23,23,23,22,24,23,23,24,23,22,22,23,22,22,22,2055.txt
29,30,29,21,22,23,21,21,21,21,29,19,19,29,23,21,21,21,21,21,23,24,23,23,23,22,24,23,23,24,23,22,22,23,22,22,22,2057.txt
29,30,29,21,22,23,21,21,21,21,29,19,19,29,23,21,21,21,21,21,23,24,23,23,23,22,24,23,23,24,23,22,22,23,22,22,22,2060.txt
29,30,29,21,22,23,21,21,21,21,29,19,19,29,23,21,21,21,21,21,23,24,23,23,23,22,24,23,23,24,23,22,22,23,22,22,22,2062.txt
29,30,29,21,22,23,21,21,21,21,29,19,19,29,23,21,21,21,21,21,23,24,23,23,23,22,24,23,23,24,23,22,22,23,22,22,22,2066.txt
29,30,29,21,22,23,21,21,21,21,29,19,19,29,23,21,21,21,21,21,23,24,23,23,23,22,24,23,23,24,23,22,22,23,22,22,22,2067.txt
29,30,29,21,22,23,21,21,21,21,29,23,23,29,23,21,21,21,21,21,23,24,23,23,23,22,24,23,23,24,23,22,22,23,22,22,22,2069.txt
0,30,29,21,22,23,21,21,21,21,18,19,19,29,23,21,21,21,21,21,23,24,23,23,23,22,24,23,23,24,23,22,22,23,22,22,22,2072.txt
29,30,29,21,22,23,21,21,21,21,29,23,23,29,23,21,21,21,21,21,23,24,23,23,23,22,24,23,23,24,23,22,22,23,22,22,22,2074.txt
29,30,29,21,22,23,21,21,21,21,29,19,19,29,23,21,21,21,21,21,23,24,23,23,23,22,24,23,23,24,23,22,22,23,22,22,22,2078.txt
29,30,29,21,22,23,21,21,21,21,29,19,19,29,23,21,21,21,21,21,23,24,23,23,23,22,24,23,23,24,23,22,22,23,22,22,22,2080.txt
0,30,29,21,22,23,21,21,21,21,18,19,19,24,24,23,22,22,22,23,24,25,24,24,24,23,26,24,24,26,24,23,23,24,23,23,23,2083.txt
29,30,29,21,22,23,21,21,21,21,29,19,19,29,23,21,21,21,21,21,23,24,23,23,23,22,24,23,23,24,23,22,22,23,22,22,22,2085.txt
29,30,29,21,22,23,21,21,21,21,29,23,23,29,23,21,21,21,21,21,23,24,23,23,23,22,24,23,23,24,23,22,22,23,22,22,22,2087.txt
29,30,29,21,22,23,21,21,21,21,29,23,23,29,23,21,21,21,21,21,23,24,23,23,23,22,24,23,23,24,23,22,22,23,22,22,22,2090.txt
29,30,29,21,22,23,21,21,21,21,29,19,19,29,23,21,21,21,21,21,23,24,23,23,23,22,24,23,23,24,23,22,22,23,22,22,22,2092.txt
0,30,29,21,22,23,21,21,21,21,18,19,19,29,23,21,21,21,21,21,23,24,23,23,23,22,24,23,23,24,23,22,22,23,22,22,22,2093.txt
29,30,29,21,22,23,21,21,21,21,29,23,23,29,23,21,21,21,21,21,23,24,23,23,23,22,24,23,23,24,23,22,22,23,22,22,22,2096.txt
29,30,29,21,22,23,21,21,21,21,29,19,19,29,23,21,21,21,21,21,23,24,23,23,23,22,24,23,23,24,23,22,22,23,22,22,22,2098.txt
6,30,29,21,22,23,21,21,21,21,29,19,19,29,13,21,21,21,21,21,23,24,23,23,23,22,24,23,23,24,23,22,22,23,22,22,22,2099.txt
22,30,24,28,29,28,26,26,26,26,23,20,20,22,26,22,24,24,24,25,26,27,26,26,26,28,28,26,26,28,26,25,25,26,25,25,25,2101.txt
29,30,29,21,22,23,21,21,21,21,29,19,19,29,23,21,21,21,21,21,23,24,23,23,23,22,24,23,23,24,23,22,22,23,22,22,22,2103.txt
22,12,19,13,28,29,27,27,27,27,17,25,25,25,25,24,23,23,23,24,25,26,25,25,25,24,27,25,25,27,25,24,24,25,24,24,24,2105.txt
29,30,29,21,22,23,21,21,21,21,29,19,19,29,23,21,21,21,21,21,23,24,23,23,23,22,24,23,23,24,23,22,22,23,22,22,22,2107.txt
29,30,29,21,22,23,21,21,21,21,29,19,19,29,23,21,21,21,21,21,23,24,23,23,23,22,24,23,23,24,23,22,22,23,22,22,22,2110.txt
0,30,29,21,22,23,21,21,21,21,18,19,19,29,23,21,21,21,21,21,23,24,23,23,23,22,24,23,23,24,23,22,22,23,22,22,22,2113.txt
29,30,29,21,22,23,21,21,21,21,29,19,19,29,23,21,21,21,21,21,23,24,23,23,23,22,24,23,23,24,23,22,22,23,22,22,22,2114.txt
29,30,29,21,22,23,21,21,21,21,29,19,19,24,24,23,22,22,22,23,24,25,24,24,24,23,26,24,24,26,24,23,23,24,23,23,23,2117.txt
29,30,29,21,22,23,21,21,21,21,29,19,19,29,23,21,21,21,21,21,23,24,23,23,23,22,24,23,23,24,23,22,22,23,22,22,22,2119.txt
29,30,29,21,22,23,21,21,21,21,29,19,19,29,23,21,21,21,21,21,23,24,23,23,23,22,24,23,23,24,23,22,22,23,22,22,22,2121.txt
29,30,21,17,18,19,17,14,13,14,10,11,10,12,23,21,21,21,21,21,13,14,14,14,14,13,14,14,14,13,13,12,11,12,12,12,12,2122.txt
27,30,30,22,23,25,22,22,22,22,20,16,16,19,20,17,18,17,18,18,20,21,20,20,20,19,21,19,19,20,20,18,18,20,18,18,18,2125.txt
29,30,29,21,22,23,21,21,21,21,29,19,19,29,23,21,21,21,21,21,23,24,23,23,23,22,24,23,23,24,23,22,22,23,22,22,22,2126.txt
29,30,29,21,22,23,21,21,21,21,15,19,19,29,23,21,21,21,21,21,23,24,23,23,23,22,24,23,23,24,23,22,22,23,22,22,22,2129.txt
29,30,29,21,22,23,21,21,21,21,29,19,19,24,24,23,22,22,22,23,24,25,24,24,24,23,26,24,24,26,24,23,23,24,23,23,23,2130.txt
29,30,29,21,22,23,21,21,21,21,29,19,19,29,23,21,21,21,21,21,23,24,23,23,23,22,24,23,23,24,23,22,22,23,22,22,22,2133.txt
29,30,29,21,22,23,21,21,21,21,29,23,23,29,23,21,21,21,21,21,23,24,23,23,23,22,24,23,23,24,23,22,22,23,22,22,22,2135.txt
29,30,29,21,22,23,21,21,21,21,29,19,19,29,23,21,21,21,21,21,23,24,23,23,23,22,24,23,23,24,23,22,22,23,22,22,22,2137.txt
22,12,19,13,28,29,27,27,27,27,17,24,12,27,26,22,24,24,24,26,26,27,26,26,26,28,29,26,26,29,26,25,25,26,25,25,25,2139.txt
29,30,29,21,22,23,21,21,21,21,29,19,19,24,24,23,22,22,22,23,24,25,24,24,24,23,26,24,24,26,24,23,23,24,23,23,23,2141.txt
29,30,29,21,22,23,21,21,21,21,29,23,23,29,23,21,21,21,21,21,23,24,23,23,23,22,24,23,23,24,23,22,22,23,22,22,22,2142.txt
29,14,8,3,3,5,3,30,29,28,30,1,1,1,30,3,3,3,3,3,3,3,3,3,3,29,3,3,3,3,3,30,30,3,30,30,30,2145.txt
29,30,29,21,22,23,21,21,21,21,29,23,23,29,23,21,21,21,21,21,23,24,23,23,23,22,24,23,23,24,23,22,22,23,22,22,22,2147.txt
29,30,29,21,22,23,21,21,21,21,29,19,19,29,23,21,21,21,21,21,23,24,23,23,23,22,24,23,23,24,23,22,22,23,22,22,22,2149.txt
29,30,29,21,22,23,21,21,21,21,29,19,19,24,24,23,22,22,22,23,24,25,24,24,24,23,26,24,24,26,24,23,23,24,23,23,23,2151.txt
0,30,10,0,0,4,0,0,30,30,18,19,19,24,24,2,0,0,0,0,0,0,0,0,0,0,0,0,0,0,0,0,0,0,0,0,0,2153.txt
29,30,29,21,22,23,21,21,21,21,29,19,19,29,23,21,21,21,21,21,23,24,23,23,23,22,24,23,23,24,23,22,22,23,22,22,22,2154.txt
0,12,0,1,1,0,1,1,1,1,0,0,0,13,14,12,12,12,12,12,14,15,15,15,15,14,15,15,15,15,19,14,14,14,13,13,13,2156.txt
29,30,29,21,22,23,21,21,21,21,29,19,19,29,23,21,21,21,21,21,23,24,23,23,23,22,24,23,23,24,23,22,22,23,22,22,22,2160.txt
29,30,29,21,22,23,21,21,21,21,29,19,19,29,23,21,21,21,21,21,23,24,23,23,23,22,24,23,23,24,23,22,22,23,22,22,22,2161.txt
0,30,29,21,22,23,21,21,21,21,18,19,19,24,24,23,22,22,22,23,24,25,24,24,24,23,26,24,24,26,24,23,23,24,23,23,23,2165.txt
29,19,29,21,22,23,21,21,21,21,29,19,19,29,23,21,21,21,21,21,23,24,23,23,23,22,24,23,23,24,23,22,22,23,22,22,22,2166.txt
29,30,29,21,22,23,21,21,21,21,29,23,23,29,23,21,21,21,21,21,23,24,23,23,23,22,24,23,23,24,23,22,22,23,22,22,22,2168.txt
22,12,24,28,29,28,19,26,26,26,23,20,20,30,26,22,24,24,24,25,26,27,26,26,26,28,28,26,26,28,26,25,25,26,25,25,25,2171.txt
29,30,29,21,22,23,21,21,21,21,29,19,19,29,23,21,21,21,21,21,23,24,23,23,23,22,24,23,23,24,23,22,22,23,22,22,22,2173.txt
29,30,29,21,22,23,21,21,21,21,29,19,19,24,24,23,22,22,22,23,24,25,24,24,24,23,26,24,24,26,24,23,23,24,23,23,23,2176.txt
29,30,29,21,22,23,21,21,21,21,29,19,19,29,23,21,21,21,21,21,23,24,23,23,23,22,24,23,23,24,23,22,22,23,22,22,22,2177.txt
29,30,29,21,22,23,21,21,21,21,29,19,19,29,23,21,21,21,21,21,23,24,23,23,23,22,24,23,23,24,23,22,22,23,22,22,22,2179.txt
29,30,29,21,22,23,21,21,21,21,29,19,19,29,23,21,21,21,21,21,23,24,23,23,23,22,24,23,23,24,23,22,22,23,22,22,22,2181.txt
0,12,0,1,1,0,1,1,1,1,0,0,0,13,14,12,12,12,12,12,14,15,15,15,15,14,15,15,15,15,19,14,14,14,13,13,13,2184.txt
29,30,29,21,22,23,21,21,21,21,29,19,19,29,23,21,21,21,21,21,23,24,23,23,23,22,24,23,23,24,23,22,22,23,22,22,22,2186.txt
29,30,29,21,22,23,21,21,21,21,29,19,19,29,23,21,21,21,21,21,23,24,23,23,23,22,24,23,23,24,23,22,22,23,22,22,22,2188.txt
29,30,29,21,22,23,21,21,21,21,29,19,19,29,23,21,21,21,21,21,23,24,23,23,23,22,24,23,23,24,23,22,22,23,22,22,22,2189.txt
0,30,26,20,21,21,18,18,18,18,18,23,23,24,24,23,22,22,22,23,24,25,24,24,24,23,26,24,24,26,24,23,23,24,23,23,23,2191.txt
22,12,19,13,28,29,27,27,27,27,17,25,25,23,26,22,24,24,24,25,26,27,26,26,26,28,28,26,26,28,26,25,25,26,25,25,25,2194.txt
22,12,19,13,28,29,27,27,27,27,17,20,20,25,25,24,23,23,23,24,25,26,25,25,25,24,27,25,25,27,25,24,24,25,24,24,24,2196.txt
0,30,26,20,21,21,18,18,18,18,18,19,19,24,24,23,22,22,22,23,24,25,24,24,24,23,26,24,24,26,24,23,23,24,23,23,23,2200.txt
29,13,29,21,22,23,21,21,21,21,15,19,19,24,24,23,22,22,22,23,24,25,24,24,24,23,26,24,24,26,24,23,23,24,23,23,23,2201.txt
0,30,26,20,21,21,18,18,18,18,18,19,19,24,24,23,22,22,22,23,24,25,24,24,24,23,26,24,24,26,24,23,23,24,23,23,23,2204.txt
29,12,29,21,22,23,21,21,21,21,29,19,19,30,23,21,21,21,21,21,23,24,23,23,23,22,24,23,23,24,23,22,22,23,22,22,22,2206.txt
29,30,29,21,22,23,21,21,21,21,29,23,23,29,23,21,21,21,21,21,23,24,23,23,23,22,24,23,23,24,23,22,22,23,22,22,22,2209.txt
29,30,29,21,22,23,21,21,21,21,29,23,23,29,23,21,21,21,21,21,23,24,23,23,23,22,24,23,23,24,23,22,22,23,22,22,22,2211.txt
29,30,29,21,22,23,21,21,21,21,29,19,19,21,22,23,19,20,19,19,21,23,21,22,21,30,22,21,22,22,21,20,21,22,20,20,19,2213.txt
29,30,29,21,22,23,21,21,21,21,29,19,19,29,23,21,21,21,21,21,23,24,23,23,23,22,24,23,23,24,23,22,22,23,22,22,22,2215.txt
0,12,0,1,1,0,1,1,1,1,0,15,15,16,17,15,15,15,15,15,17,18,17,17,17,16,18,17,17,18,17,16,16,17,16,15,15,2217.txt
22,12,19,13,28,29,27,27,27,27,17,20,20,25,25,24,23,23,23,24,25,26,25,25,25,24,27,25,25,27,25,24,24,25,24,24,24,2219.txt
0,24,14,8,8,23,21,21,21,21,18,19,19,0,27,25,25,25,25,23,27,28,27,27,27,26,26,27,27,26,27,26,26,27,26,26,26,2220.txt
22,12,19,13,28,29,27,27,27,27,17,24,24,25,25,24,23,23,23,24,25,26,25,25,25,24,27,25,25,27,25,24,24,25,24,24,24,2223.txt
29,30,29,21,22,23,21,21,21,21,15,19,19,29,23,21,21,21,21,21,23,24,23,23,23,22,24,23,23,24,23,22,22,23,22,22,22,2225.txt
29,30,29,21,22,23,21,21,21,21,15,19,19,22,23,21,21,21,21,21,23,24,23,23,23,22,24,23,23,24,23,22,22,23,22,22,22,2227.txt
29,30,29,21,22,23,21,21,21,21,29,19,19,29,23,21,21,21,21,21,23,24,23,23,23,22,24,23,23,24,23,22,22,23,22,22,22,2229.txt
29,30,10,21,22,4,21,21,21,21,29,19,19,24,24,2,22,22,22,23,24,25,24,24,24,23,26,24,24,26,24,23,23,24,23,23,23,2231.txt
29,30,29,21,22,23,21,21,21,21,29,19,19,24,24,23,22,22,22,23,24,25,24,24,24,23,26,24,24,26,24,23,23,24,23,23,23,2232.txt
29,30,29,21,22,23,21,21,21,21,29,19,19,29,23,21,21,21,21,21,23,24,23,23,23,22,24,23,23,24,23,22,22,23,22,22,22,2234.txt
29,12,14,8,8,23,21,21,21,21,29,27,26,0,27,25,25,25,25,22,27,28,27,27,27,26,25,27,27,25,27,26,26,27,26,26,26,2237.txt
26,30,29,21,22,23,21,21,21,21,18,19,19,29,23,21,21,21,21,21,23,24,23,23,23,22,24,23,23,24,23,22,22,23,22,22,22,2240.txt
29,30,29,21,22,23,21,21,21,21,29,19,19,29,23,21,21,21,21,21,23,24,23,23,23,22,24,23,23,24,23,22,22,23,22,22,22,2241.txt
29,30,29,21,22,23,21,21,21,21,29,19,19,29,23,21,21,21,21,21,23,24,23,23,23,22,24,23,23,24,23,22,22,23,22,22,22,2244.txt
29,30,29,21,22,23,21,21,21,21,29,23,23,29,23,21,21,21,21,21,23,24,23,23,23,22,24,23,23,24,23,22,22,23,22,22,22,2245.txt
29,30,29,21,22,23,21,21,21,21,29,19,19,29,23,21,21,21,21,21,23,24,23,23,23,22,24,23,23,24,23,22,22,23,22,22,22,2247.txt
29,30,29,21,22,23,21,21,21,21,29,19,19,29,23,21,21,21,21,21,23,24,23,23,23,22,24,23,23,24,23,22,22,23,22,22,22,2249.txt
22,12,19,13,28,29,27,27,27,27,17,20,20,23,26,22,24,24,24,25,26,27,26,26,26,28,28,26,26,28,26,25,25,26,25,25,25,2252.txt
29,30,29,21,22,23,21,21,21,21,29,23,23,24,24,23,22,22,22,23,24,25,24,24,24,23,26,24,24,26,24,23,23,24,23,23,23,2255.txt
29,30,29,21,22,23,21,21,21,21,29,19,19,29,23,21,21,21,21,21,23,24,23,23,23,22,24,23,23,24,23,22,22,23,22,22,22,2257.txt
29,30,29,21,22,23,21,21,21,21,29,19,19,29,23,21,21,21,21,21,23,24,23,23,23,22,24,23,23,24,23,22,22,23,22,22,22,2258.txt
29,12,29,21,22,23,21,21,21,21,15,23,23,25,24,23,22,22,22,23,24,25,24,24,24,23,26,24,24,26,24,23,23,24,23,23,23,2260.txt
0,30,26,20,21,21,18,18,18,18,18,19,19,24,24,23,22,22,22,23,24,25,24,24,24,23,26,24,24,26,24,23,23,24,23,23,23,2263.txt
29,30,29,21,22,23,21,21,21,21,29,19,19,29,23,21,21,21,21,21,23,24,23,23,23,22,24,23,23,24,23,22,22,23,22,22,22,2265.txt
0,30,26,0,0,21,0,0,30,30,18,19,19,24,24,23,0,0,0,0,0,0,0,0,0,0,0,0,0,0,0,0,0,0,0,0,0,2266.txt
29,30,29,21,22,23,21,21,21,21,29,19,19,29,23,21,21,21,21,21,23,24,23,23,23,22,24,23,23,24,23,22,22,23,22,22,22,2268.txt
29,30,29,21,22,23,21,21,21,21,29,19,19,29,23,21,21,21,21,21,23,24,23,23,23,22,24,23,23,24,23,22,22,23,22,22,22,2271.txt
0,30,29,21,22,23,21,21,21,21,18,19,19,24,24,23,22,22,22,23,24,25,24,24,24,23,26,24,24,26,24,23,23,24,23,23,23,2273.txt
0,12,0,1,1,0,1,1,1,1,0,0,0,13,14,12,12,12,12,12,14,15,15,15,15,14,15,15,15,15,19,14,14,14,13,13,13,2275.txt
22,12,19,13,28,29,27,27,27,27,17,20,20,23,26,22,24,24,24,25,26,27,26,26,26,28,28,26,26,28,26,25,25,26,25,25,25,2276.txt
0,12,0,1,1,0,1,1,1,1,0,0,0,13,14,12,12,12,12,12,14,15,15,15,15,14,15,15,15,15,19,14,14,14,13,13,13,2278.txt
29,30,29,21,22,23,21,21,21,21,29,19,19,29,23,21,21,21,21,21,23,24,23,23,23,22,24,23,23,24,23,22,22,23,22,22,22,2280.txt
22,30,19,13,28,29,27,27,27,27,17,20,20,22,26,22,24,24,24,25,26,27,26,26,26,28,28,26,26,28,26,25,25,26,25,25,25,2283.txt
29,30,29,21,22,23,21,21,21,21,29,23,23,24,24,23,22,22,22,23,24,25,24,24,24,23,26,24,24,26,24,23,23,24,23,23,23,2284.txt
29,30,29,21,22,23,21,21,21,21,29,23,23,29,23,21,21,21,21,21,23,24,23,23,23,22,24,23,23,24,23,22,22,23,22,22,22,2286.txt
29,30,29,21,22,23,21,21,21,21,29,19,19,29,23,21,21,21,21,21,23,24,23,23,23,22,24,23,23,24,23,22,22,23,22,22,22,2288.txt
28,12,30,22,24,24,23,23,23,23,18,19,19,13,24,23,22,22,22,23,24,25,24,24,24,23,26,24,24,21,24,23,23,24,23,23,23,2291.txt
29,30,29,21,22,23,21,21,21,21,29,19,19,24,24,23,22,22,22,23,24,25,24,24,24,23,26,24,24,26,24,23,23,24,23,23,23,2292.txt
22,12,19,13,28,29,27,27,27,27,17,20,20,28,28,26,26,26,26,26,28,29,28,28,28,27,29,28,28,29,28,27,27,28,27,27,27,2294.txt
29,30,29,21,22,23,21,21,21,21,15,19,19,24,24,23,22,22,22,23,24,25,24,24,24,23,26,24,24,26,24,23,23,24,23,23,23,2297.txt
29,30,29,21,22,23,21,21,21,21,29,19,19,29,23,21,21,21,21,21,23,24,23,23,23,22,24,23,23,24,23,22,22,23,22,22,22,2300.txt
29,30,29,21,22,23,21,21,21,21,29,23,23,29,23,21,21,21,21,21,23,24,23,23,23,22,24,23,23,24,23,22,22,23,22,22,22,2302.txt
29,30,29,21,22,23,21,21,21,21,29,19,19,29,23,21,21,21,21,21,23,24,23,23,23,22,24,23,23,24,23,22,22,23,22,22,22,2304.txt
29,12,29,21,22,23,21,21,21,21,29,19,19,23,23,21,21,21,21,21,23,24,23,23,23,22,24,23,23,24,23,22,22,23,22,22,22,2306.txt
29,30,29,21,22,23,21,21,21,21,29,19,19,29,23,21,21,21,21,21,23,24,23,23,23,22,24,23,23,24,23,22,22,23,22,22,22,2308.txt
0,30,29,21,22,23,21,21,21,21,18,23,23,24,24,23,22,22,22,23,24,25,24,24,24,23,26,24,24,26,24,23,23,24,23,23,23,2310.txt
0,30,29,21,22,23,21,21,21,21,15,19,19,24,24,23,22,22,22,23,24,25,24,24,24,23,26,24,24,26,24,23,23,24,23,23,23,2312.txt
0,12,24,18,19,15,13,15,15,15,16,0,0,13,14,12,12,12,12,12,14,15,15,15,15,14,15,15,15,15,19,14,14,14,13,13,13,2313.txt
22,12,19,13,28,29,27,27,27,27,17,20,20,25,25,24,23,23,23,24,25,26,25,25,25,24,27,25,25,27,25,24,24,25,24,24,24,2315.txt
29,30,29,21,22,23,21,21,21,21,29,19,19,29,23,21,21,21,21,21,23,24,23,23,23,22,24,23,23,24,23,22,22,23,22,22,22,2318.txt
22,30,24,28,29,28,26,26,26,26,23,20,20,22,26,22,24,24,24,25,26,27,26,26,26,28,28,26,26,28,26,25,25,26,25,25,25,2319.txt
29,30,29,21,22,23,21,21,21,21,29,19,19,29,23,21,21,21,21,21,23,24,23,23,23,22,24,23,23,24,23,22,22,23,22,22,22,2322.txt
0,30,29,21,22,23,21,21,21,21,18,19,19,24,24,23,22,22,22,23,24,25,24,24,24,23,26,24,24,26,24,23,23,24,23,23,23,2324.txt
29,19,5,21,22,23,21,21,21,21,29,23,23,29,30,21,21,21,21,21,23,24,23,23,23,22,24,23,23,24,23,22,22,23,22,22,22,2325.txt
29,30,29,21,22,23,21,21,21,21,15,19,19,22,23,21,21,21,21,21,23,24,23,23,23,22,24,23,23,24,23,22,22,23,22,22,22,2328.txt
29,30,29,21,22,23,21,21,21,21,29,19,19,29,23,21,21,21,21,21,23,24,23,23,23,22,24,23,23,24,23,22,22,23,22,22,22,2330.txt
22,12,19,13,28,29,27,27,27,27,17,20,20,23,26,22,24,24,24,25,26,27,26,26,26,28,28,26,26,28,26,25,25,26,25,25,25,2332.txt
0,30,26,20,21,21,18,18,18,18,18,19,19,29,23,21,21,21,21,21,23,24,23,23,23,22,24,23,23,24,23,22,22,23,22,22,22,2333.txt
29,30,29,21,22,23,21,21,21,21,29,19,19,29,23,21,21,21,21,21,23,24,23,23,23,22,24,23,23,24,23,22,22,23,22,22,22,2337.txt
29,30,29,21,22,23,21,21,21,21,29,19,19,22,23,21,21,21,21,21,23,24,23,23,23,22,24,23,23,24,23,22,22,23,22,22,22,2339.txt
29,30,29,21,22,23,21,21,21,21,29,19,19,29,23,21,21,21,21,21,23,24,23,23,23,22,24,23,23,24,23,22,22,23,22,22,22,2341.txt
29,30,29,21,22,23,21,21,21,21,29,23,23,29,23,21,21,21,21,21,23,24,23,23,23,22,24,23,23,24,23,22,22,23,22,22,22,2343.txt
29,30,29,21,22,23,21,21,21,21,29,19,19,29,23,21,21,21,21,21,23,24,23,23,23,22,24,23,23,24,23,22,22,23,22,22,22,2344.txt
0,12,0,1,1,0,1,1,1,1,0,15,15,13,14,12,12,12,12,12,14,15,15,15,15,14,15,15,15,15,19,14,14,14,13,13,13,2346.txt
29,30,29,21,22,23,21,21,21,21,29,19,19,29,23,21,21,21,21,21,23,24,23,23,23,22,24,23,23,24,23,22,22,23,22,22,22,2348.txt
29,30,29,21,22,23,21,21,21,21,29,19,19,29,23,21,21,21,21,21,23,24,23,23,23,22,24,23,23,24,23,22,22,23,22,22,22,2352.txt
29,30,29,21,22,23,21,21,21,21,15,23,23,29,23,21,21,21,21,21,23,24,23,23,23,22,24,23,23,24,23,22,22,23,22,22,22,2354.txt
