0,1,2,3,4,5,6,7,8,9,10,11,12,13,14,15,16,17,18,19,20,21,22,23,24,25,26,27,28,29,30,31,32,33,34,35,36,37,38,39,40,41,42,43,44,45,46,47,48,49,50,51,52,53,54,55,56,57,58,59,60,61,62,63,64,filename
0,0,13,0,0,0,24,0,0,7,13,6,5,29,3,26,30,5,28,3,22,30,12,12,17,26,12,3,15,3,20,8,19,24,16,19,14,19,24,20,2,2,6,2,0,2,2,2,2,13,0,29,6,11,5,20,7,14,1,7,4,30,7,13,5,2.txt
16,0,2,23,23,1,6,5,5,16,22,5,7,2,8,20,6,21,22,29,16,19,21,9,3,1,2,6,2,8,27,11,9,15,21,20,6,10,24,22,18,13,13,7,0,0,0,0,0,9,0,9,13,15,13,29,3,28,0,30,7,14,20,7,16,5.txt
0,0,13,0,0,30,15,0,0,30,24,6,5,29,4,27,30,5,28,4,5,20,27,27,27,26,4,7,23,29,14,6,15,19,7,29,18,19,24,27,15,14,17,1,1,11,11,4,10,15,7,6,4,3,30,2,2,2,2,3,2,8,2,13,2,9.txt
0,0,13,0,0,0,24,0,0,7,0,6,5,29,0,26,30,5,17,24,22,30,23,20,22,26,23,6,17,8,21,2,18,0,21,18,6,19,24,9,18,0,13,0,0,0,0,0,0,1,0,9,1,1,25,29,3,28,0,5,1,1,1,7,27,12.txt
0,0,13,0,0,0,24,0,0,7,24,6,5,29,4,26,30,5,28,4,22,30,26,26,26,26,4,6,23,8,13,2,27,13,21,18,14,19,24,9,18,0,13,0,0,2,2,2,2,13,0,9,4,3,30,29,3,28,0,3,4,17,4,13,5,14.txt
0,0,13,0,0,0,24,0,0,7,13,6,5,29,4,26,30,5,28,4,22,30,26,26,26,26,4,6,4,8,13,2,27,13,21,19,14,19,24,9,18,0,13,0,0,2,2,2,2,13,0,9,0,0,0,29,3,28,0,5,4,4,4,13,7,16.txt
0,0,13,0,0,0,24,0,0,30,0,6,5,29,0,26,30,5,17,24,22,30,23,20,22,26,23,6,17,8,21,2,18,0,21,29,6,19,24,27,18,0,13,0,0,0,0,0,0,9,0,9,6,11,5,29,3,28,0,8,7,8,14,7,16,17.txt
0,0,13,0,0,0,24,0,0,7,0,6,5,29,0,26,30,5,17,24,22,30,23,20,22,26,23,6,17,8,21,2,18,0,21,18,6,19,24,9,18,0,13,0,0,0,0,0,0,0,0,9,4,3,30,29,3,28,0,3,4,3,23,7,7,21.txt
0,0,13,0,0,0,24,0,0,7,0,6,5,29,0,26,30,5,17,24,22,30,23,20,22,26,23,6,17,8,21,2,18,0,21,18,6,19,24,9,18,0,13,0,0,0,0,0,0,1,0,9,1,1,25,29,3,28,0,5,1,1,1,0,27,23.txt
0,0,13,0,0,0,24,0,0,7,24,6,5,29,4,26,30,5,14,4,22,30,26,26,26,26,4,6,23,8,13,2,27,13,21,18,15,19,24,9,18,0,13,0,0,2,2,2,2,9,0,9,4,3,30,29,3,28,0,5,7,28,12,15,13,24.txt
0,0,13,0,0,0,24,0,0,30,0,7,19,8,0,26,7,10,17,24,22,30,23,20,22,16,23,3,17,3,21,2,18,0,3,29,2,27,26,27,2,2,5,2,0,0,0,0,0,0,0,2,4,3,30,2,2,2,2,3,2,3,2,0,2,26.txt
0,0,13,0,0,0,24,0,0,7,24,6,5,29,4,26,30,5,28,4,22,30,26,26,26,26,4,6,23,8,13,2,27,13,21,18,18,19,24,9,18,0,13,0,4,26,30,2,19,9,4,9,4,3,30,29,3,28,0,5,7,3,18,13,13,28.txt
0,0,13,0,0,0,24,0,0,7,0,0,0,12,0,26,8,11,17,24,22,30,23,20,22,26,23,3,17,3,21,2,18,0,16,18,2,27,26,9,2,2,6,2,0,0,0,0,0,0,0,2,4,3,30,2,2,2,2,3,2,0,2,0,2,30.txt
23,0,29,3,16,5,30,30,30,15,29,13,13,11,14,7,12,4,16,29,21,11,21,16,3,2,28,27,9,23,27,11,9,11,7,14,22,15,22,15,17,30,7,11,19,30,25,20,28,27,3,4,12,26,12,19,29,20,16,21,12,26,5,20,25,32.txt
0,0,13,0,0,30,24,0,0,30,24,11,11,12,22,27,8,11,28,19,5,15,27,27,27,26,4,7,23,29,13,2,27,13,2,29,7,11,23,27,9,9,10,14,18,12,12,4,13,13,7,6,4,3,30,25,29,13,16,13,8,8,5,18,12,34.txt
0,0,13,0,0,0,24,0,0,7,13,6,5,29,4,26,30,5,28,4,22,30,27,27,27,26,4,6,4,8,14,8,15,14,16,19,15,19,24,21,2,2,6,2,0,2,2,2,2,29,0,27,0,0,0,12,7,11,1,1,7,8,23,13,20,36.txt
0,0,13,0,0,0,24,0,0,7,0,6,5,29,0,26,30,5,17,24,22,30,23,20,22,26,23,6,17,8,21,2,18,0,21,18,6,19,24,9,18,0,13,0,0,0,0,0,0,1,0,9,1,1,25,29,3,28,0,5,1,1,1,0,27,40.txt
0,0,13,0,0,0,24,0,0,30,24,11,23,22,22,26,13,20,28,19,22,30,27,27,27,26,4,3,23,3,13,2,27,13,16,29,21,11,23,27,2,2,6,2,0,2,2,2,2,13,0,27,8,11,8,12,7,13,1,10,4,8,5,13,5,41.txt
0,0,13,0,0,0,24,0,0,7,0,6,5,29,0,26,30,5,17,24,22,30,23,20,22,26,23,6,17,8,21,2,18,0,21,18,6,19,24,9,18,0,13,0,0,0,0,0,0,1,0,9,1,1,25,29,3,28,0,5,1,1,1,0,27,49.txt
0,0,13,0,0,30,24,0,0,7,24,6,5,29,4,27,30,5,28,4,5,20,27,27,27,26,4,7,23,29,13,2,27,13,2,29,14,19,24,27,9,9,10,1,1,11,11,4,10,0,7,6,4,3,30,12,7,13,1,3,4,8,4,13,11,53.txt
0,0,13,0,0,0,24,0,0,7,0,6,5,29,0,26,30,5,17,24,22,30,23,20,22,26,23,3,17,3,21,2,18,0,16,18,6,19,24,9,2,2,6,2,0,0,0,0,0,13,0,27,6,11,5,12,7,13,26,7,4,8,4,0,5,55.txt
0,0,13,0,0,0,24,0,0,7,0,6,5,29,0,26,30,5,17,24,22,30,23,20,22,26,23,6,17,8,21,2,18,0,21,18,6,19,24,9,18,0,13,0,0,0,0,0,0,0,0,9,2,2,2,29,3,28,0,5,2,0,2,0,2,57.txt
0,0,13,0,0,0,24,0,0,7,0,6,5,29,0,26,30,5,17,24,22,30,23,20,22,26,23,6,17,8,21,2,18,0,21,18,6,19,24,9,18,0,13,0,0,0,0,0,0,1,0,9,1,1,25,29,3,28,0,5,1,1,1,0,27,60.txt
0,0,13,0,0,0,24,0,0,30,24,11,11,12,4,26,8,11,28,4,22,30,6,6,6,26,12,4,23,28,13,2,27,13,2,29,21,11,23,27,9,9,10,3,3,11,11,21,10,0,22,19,3,5,21,19,7,14,1,18,4,8,0,13,5,61.txt
0,0,13,0,0,0,24,0,0,7,0,6,5,29,0,26,30,5,17,24,22,30,23,20,22,26,23,6,17,8,21,2,18,0,21,17,6,19,24,8,18,0,13,0,0,0,0,0,0,1,0,9,1,1,25,29,3,28,0,5,1,1,1,7,27,63.txt
5,0,13,0,0,0,30,30,30,30,24,13,13,6,2,26,12,19,14,13,22,30,2,8,3,5,7,3,7,3,11,17,12,9,16,29,2,27,26,27,2,2,6,2,0,2,2,2,2,29,0,2,25,25,23,2,2,2,2,16,2,4,2,1,2,65.txt
16,0,29,23,23,1,6,5,5,15,6,4,4,2,5,8,5,27,16,29,8,8,21,2,3,1,7,6,21,8,27,17,12,9,21,20,18,9,24,22,18,12,13,6,0,2,2,15,2,0,0,9,2,2,2,29,3,28,0,29,2,3,2,13,2,68.txt
0,0,13,0,0,0,25,0,0,7,24,11,11,19,4,26,13,16,28,4,22,30,27,27,27,26,4,3,23,3,14,0,15,19,16,18,2,27,26,21,2,2,6,2,0,2,2,2,2,3,0,2,6,11,5,2,2,2,2,7,2,8,2,13,2,71.txt
0,0,13,0,0,0,24,0,0,7,24,6,5,29,22,26,30,5,28,19,22,30,27,27,27,26,4,6,23,8,13,2,27,13,21,18,18,19,24,9,18,13,13,7,0,2,2,2,2,9,0,9,4,3,7,29,3,28,0,5,7,8,23,13,16,72.txt
0,0,13,0,0,0,24,0,0,7,0,6,5,29,0,26,30,5,17,24,22,30,23,20,22,26,23,6,17,8,21,2,18,0,21,18,6,19,24,9,18,0,13,0,8,0,0,0,0,1,26,9,1,1,25,29,3,28,0,5,1,1,1,0,27,76.txt
0,0,13,0,0,30,24,0,0,30,24,11,11,15,6,27,13,15,28,5,18,14,12,12,17,26,12,18,5,29,16,2,17,18,2,29,25,26,12,27,9,9,10,5,6,12,12,5,13,0,1,1,0,0,0,23,18,25,24,1,16,13,5,30,5,78.txt
0,0,13,0,0,0,24,0,0,7,24,6,5,29,4,26,30,5,28,4,22,30,12,12,12,26,12,6,24,8,13,2,27,13,21,19,18,19,24,9,18,0,13,0,4,26,30,2,22,9,4,9,10,11,26,29,3,28,0,8,4,3,10,13,15,81.txt
0,0,13,0,0,0,24,0,0,7,0,6,5,29,0,26,30,5,17,24,22,30,23,20,22,26,23,3,17,3,21,2,18,0,3,29,6,19,24,27,2,2,5,2,0,0,0,0,0,0,0,2,4,3,30,12,7,13,1,3,27,3,4,0,5,84.txt
0,0,13,0,0,0,24,0,0,7,0,6,5,29,0,26,30,5,17,24,22,30,23,20,22,26,23,6,17,8,21,2,18,0,21,18,6,19,24,9,18,0,13,0,0,0,0,0,0,1,0,9,1,1,25,29,3,28,0,5,1,1,1,0,27,86.txt
0,0,13,0,0,30,24,0,0,7,0,6,5,29,0,27,30,5,17,24,5,20,23,20,22,26,23,9,17,29,21,2,18,0,7,18,6,19,24,9,8,14,9,3,3,11,11,23,10,13,6,5,4,3,30,6,7,6,6,3,4,5,5,0,5,89.txt
0,0,13,0,0,0,24,0,0,7,24,6,5,29,4,26,30,5,28,4,22,30,26,26,26,26,4,6,23,8,13,2,27,13,21,18,15,19,24,9,18,0,13,0,0,2,2,2,2,12,0,9,6,8,5,29,3,28,0,5,4,8,4,13,5,90.txt
0,0,13,0,0,0,24,0,0,7,18,6,5,29,0,26,30,5,17,24,22,30,23,20,22,26,23,6,17,8,21,2,18,0,21,18,6,19,24,9,18,0,18,0,0,0,0,0,0,1,0,13,1,1,25,29,3,28,0,5,1,1,1,0,27,92.txt
5,24,13,0,0,0,30,30,30,30,0,13,13,6,0,26,12,4,17,29,22,30,23,20,22,26,23,15,9,12,4,17,12,9,16,14,2,27,26,11,5,5,6,8,4,0,0,0,0,0,4,2,12,14,12,2,2,2,2,3,2,3,2,0,2,95.txt
0,0,13,0,0,0,24,0,0,7,24,6,5,29,4,26,30,5,14,4,22,30,26,26,26,26,4,3,23,3,14,0,15,19,16,18,15,19,24,21,2,2,6,20,0,2,2,2,2,9,0,2,6,11,5,24,6,26,15,7,30,8,18,30,15,97.txt
0,0,13,0,0,0,24,0,0,7,24,6,5,29,3,26,30,5,28,3,22,30,6,6,6,14,18,6,15,8,20,2,19,24,21,18,14,19,24,9,18,0,13,0,0,2,2,10,2,13,0,9,4,3,30,29,3,28,0,3,4,30,7,13,11,98.txt
0,0,13,0,0,0,24,0,0,7,0,6,5,29,0,26,30,5,17,24,22,30,23,20,22,26,23,6,17,8,21,2,18,0,21,18,6,19,24,9,18,0,13,0,0,0,0,0,0,1,0,9,1,1,25,29,3,28,0,5,1,1,1,0,27,100.txt
0,0,13,0,0,0,24,0,0,7,24,6,5,29,4,26,30,5,28,4,22,30,26,26,26,26,4,3,23,3,13,2,27,13,16,18,15,19,24,9,2,2,6,2,0,2,2,2,2,0,0,2,4,3,30,12,7,9,1,3,4,8,5,13,11,102.txt
0,0,13,0,0,0,24,0,0,7,0,6,5,29,0,26,30,5,17,24,22,30,23,20,22,26,23,6,17,8,21,2,18,0,16,18,6,19,24,9,2,2,6,2,0,0,0,0,0,0,0,2,6,8,5,12,7,13,1,7,4,3,4,0,10,105.txt
0,0,13,0,0,0,24,0,0,7,0,6,5,29,0,26,30,5,17,24,22,30,23,20,22,26,23,6,17,8,21,2,18,0,21,18,6,19,24,9,18,0,13,0,0,0,0,0,0,1,0,9,1,1,25,29,3,28,0,5,1,1,1,0,27,108.txt
0,0,13,0,0,0,24,0,0,7,0,6,5,29,0,26,30,5,17,24,22,30,23,20,22,26,23,6,17,8,21,2,18,0,21,18,6,19,24,9,18,0,13,0,0,0,0,0,0,1,0,9,1,1,25,29,3,28,0,3,1,1,1,0,27,110.txt
0,0,13,0,0,0,24,0,0,7,0,6,5,29,0,26,30,5,17,24,22,30,23,20,22,26,23,6,17,8,21,2,18,0,21,18,6,19,24,9,18,0,13,0,0,0,0,0,0,1,0,9,1,1,25,29,3,28,0,5,1,1,1,0,27,112.txt
0,0,0,0,0,0,24,0,0,9,3,11,11,19,4,26,30,5,3,4,22,30,26,26,26,23,4,3,23,3,13,8,27,13,16,6,2,27,26,6,2,2,6,2,0,2,2,2,2,9,0,2,9,6,9,2,2,2,2,10,2,0,2,1,2,114.txt
0,0,13,0,0,30,24,0,0,30,24,0,0,12,4,27,8,11,28,4,5,20,27,27,27,26,4,19,23,29,13,2,27,13,7,29,21,11,23,27,8,14,9,3,3,11,11,11,10,0,7,6,4,3,30,12,7,13,1,3,4,8,29,13,30,116.txt
0,0,13,0,0,0,24,0,0,7,0,6,5,29,0,26,30,5,17,24,22,30,23,20,22,26,23,6,17,8,21,2,18,0,21,18,6,19,24,9,18,0,13,0,0,0,0,0,0,1,0,9,1,1,25,29,3,28,0,5,1,1,1,0,27,118.txt
16,0,4,23,23,1,30,30,30,15,29,13,13,2,2,7,12,27,16,29,1,27,21,22,3,2,9,6,20,8,27,11,9,8,21,20,6,10,17,22,18,0,13,0,4,0,0,0,0,0,4,9,25,25,21,20,13,13,16,21,19,14,6,0,5,121.txt
0,0,13,0,0,30,24,0,0,7,24,11,11,12,4,27,8,11,28,4,5,20,6,6,6,26,12,19,23,29,14,6,15,19,2,18,2,27,26,21,9,9,10,15,19,11,11,11,10,15,7,6,4,3,30,2,2,2,2,3,2,8,2,13,2,123.txt
0,0,13,0,0,25,25,0,0,7,14,6,5,29,4,23,30,5,28,4,13,20,12,12,12,26,12,9,24,29,14,8,15,19,2,19,18,19,24,21,4,4,4,3,3,11,11,23,10,15,1,1,9,11,9,12,7,21,1,8,4,8,27,13,25,124.txt
0,0,13,0,0,0,24,0,0,7,0,6,5,29,0,26,30,5,17,24,22,30,23,20,22,26,23,6,17,8,21,2,18,0,21,18,6,19,24,9,18,0,13,0,0,0,0,0,0,1,0,9,1,1,25,29,3,28,0,5,1,1,1,0,27,126.txt
0,0,13,0,0,0,24,0,0,7,0,6,5,29,0,26,30,5,17,24,22,30,23,20,22,26,23,6,17,8,21,2,18,0,21,19,6,19,24,9,18,0,13,0,0,0,0,0,0,0,0,9,6,11,5,29,3,28,0,5,3,3,6,2,10,128.txt
0,0,13,0,0,0,24,0,0,7,0,6,5,29,0,26,30,5,17,24,22,30,23,20,22,26,23,6,17,8,21,2,18,0,21,18,6,19,24,9,18,0,13,0,0,0,0,0,0,1,0,9,1,1,25,29,3,28,0,5,1,1,1,7,27,130.txt
0,0,13,0,0,0,24,0,0,7,0,6,5,29,0,26,30,5,17,24,22,30,23,20,22,26,23,6,17,8,21,2,18,0,21,18,6,19,24,9,18,0,13,0,0,0,0,0,0,1,0,9,1,1,25,29,3,28,0,5,1,1,1,7,27,132.txt
0,0,13,0,0,0,24,0,0,7,0,6,5,29,0,26,30,5,17,24,22,30,23,20,22,26,23,6,17,8,21,2,18,0,21,18,6,19,24,9,18,0,13,0,0,0,0,0,0,1,0,9,1,1,25,29,3,28,0,5,1,1,1,0,27,135.txt
0,0,0,0,0,0,24,0,0,9,3,6,5,29,6,26,30,5,3,5,22,30,26,26,26,23,4,6,5,8,5,2,5,5,21,6,15,18,24,6,18,0,13,0,4,26,30,2,6,12,4,9,4,3,7,22,19,27,0,3,27,4,4,1,3,137.txt
0,0,13,0,0,0,24,0,0,7,0,6,5,29,0,26,30,5,17,24,22,30,23,20,22,26,23,6,17,8,21,2,18,0,21,18,6,19,24,9,18,0,13,0,0,0,0,0,0,1,0,9,1,1,25,29,3,28,0,5,1,1,1,0,27,141.txt
0,0,13,0,0,0,24,0,0,7,0,6,5,29,0,26,30,5,17,24,22,30,23,20,22,26,23,6,17,8,21,2,18,0,21,18,6,19,24,9,18,0,13,0,0,0,0,0,0,3,0,9,4,3,30,29,3,28,0,5,4,3,4,0,4,144.txt
0,0,13,0,0,0,24,0,0,7,24,6,5,29,4,26,30,5,28,4,22,30,26,26,26,26,4,6,23,8,13,2,27,13,21,18,18,19,24,9,18,0,13,0,5,20,10,2,22,0,26,9,2,2,2,29,3,28,0,3,4,17,23,13,5,145.txt
0,0,13,0,0,0,24,0,0,7,0,6,5,29,0,26,30,5,17,24,22,30,23,20,22,26,23,6,17,8,21,2,18,0,21,18,6,19,24,9,18,0,13,0,0,0,0,0,0,1,0,9,1,1,25,29,3,28,0,5,1,1,1,0,27,147.txt
0,0,13,0,0,0,24,0,0,7,0,6,5,29,0,26,30,5,17,24,22,30,23,20,22,26,23,6,17,8,21,9,18,0,21,18,6,19,24,20,18,0,13,0,0,0,0,0,0,0,0,9,4,3,30,29,3,28,0,3,4,3,4,0,5,149.txt
0,0,13,0,0,0,24,0,0,7,0,6,5,29,0,26,30,5,17,24,22,30,23,20,22,26,23,6,17,8,21,2,18,0,21,18,6,19,24,9,18,0,13,0,0,0,0,0,0,1,0,9,1,1,25,29,3,28,0,5,1,1,1,7,27,151.txt
0,0,13,0,0,0,24,0,0,7,0,6,5,29,0,26,30,5,17,24,22,30,23,20,22,26,23,6,17,8,21,2,18,0,21,18,6,19,24,9,18,0,13,0,0,0,0,0,0,1,0,9,1,1,25,29,3,28,0,5,1,1,1,0,27,154.txt
0,0,13,0,0,0,24,0,0,7,0,6,5,29,0,26,30,5,17,24,22,30,23,20,22,26,23,6,17,8,21,2,18,0,21,18,6,19,24,9,18,0,13,0,0,0,0,0,0,9,0,9,4,3,30,29,3,28,0,3,27,8,23,0,16,156.txt
0,0,13,0,0,0,24,0,0,30,24,11,11,12,4,26,8,11,27,4,22,30,26,26,26,26,4,3,23,3,13,2,27,13,16,1,2,27,26,27,2,2,6,2,0,2,2,2,2,9,0,2,4,3,30,2,2,2,2,3,2,0,2,1,2,158.txt
0,0,13,0,0,0,24,0,0,30,24,6,5,29,4,26,30,5,28,4,22,30,26,26,26,26,4,6,23,8,13,2,27,13,16,29,15,19,24,27,2,2,6,2,0,2,2,2,2,29,0,11,6,11,5,12,7,9,26,8,4,8,23,13,16,160.txt
0,0,13,0,0,0,24,0,0,7,0,6,5,29,0,26,30,5,17,24,22,30,23,20,22,26,23,6,17,8,21,8,18,0,21,18,6,19,24,2,18,0,13,0,0,0,0,0,0,0,0,9,6,10,5,29,3,28,0,5,4,5,4,0,5,161.txt
0,0,13,0,0,30,24,0,0,30,24,0,0,12,4,27,8,11,28,4,5,20,6,6,6,4,18,7,23,29,15,8,3,19,2,29,2,27,26,28,9,9,10,1,1,11,11,4,10,0,7,6,4,3,30,2,2,2,2,3,2,8,2,13,2,163.txt
0,0,13,0,0,0,24,0,0,7,0,6,5,29,0,26,30,5,17,24,22,30,23,20,22,26,23,6,17,8,21,2,18,0,21,18,6,19,24,9,18,0,13,0,0,0,0,0,0,1,0,9,1,1,25,29,3,28,0,5,1,1,1,0,27,165.txt
0,0,13,0,0,30,24,0,0,7,24,6,5,29,4,27,30,5,28,4,5,20,6,6,6,26,18,13,6,23,16,2,17,18,2,18,18,19,24,9,9,9,10,15,13,3,21,26,3,0,19,20,2,2,2,2,2,2,2,29,2,3,2,3,2,167.txt
0,0,13,0,0,0,24,0,0,7,0,6,5,29,0,26,30,5,17,24,22,30,23,20,22,26,23,6,17,8,21,2,18,0,21,18,6,19,24,9,18,0,13,0,0,0,0,0,0,1,0,9,1,1,25,29,3,28,0,5,1,1,1,0,27,169.txt
0,0,13,0,0,0,24,0,0,7,0,6,5,29,0,26,30,5,17,24,22,30,23,20,22,26,23,6,17,8,21,2,18,0,21,18,6,19,24,9,18,0,13,0,0,0,0,0,0,1,0,9,1,1,25,29,3,28,0,5,1,1,1,7,27,171.txt
0,0,13,0,0,0,24,0,0,7,0,6,5,29,0,26,30,5,17,24,22,30,23,20,22,26,23,3,17,3,21,2,18,0,16,18,6,19,24,9,2,2,6,2,0,0,0,0,0,0,0,2,4,3,30,2,2,2,2,3,2,0,2,0,2,173.txt
0,0,13,0,0,0,24,0,0,7,0,6,5,29,0,26,30,5,17,24,22,30,23,20,22,26,23,6,17,8,21,2,18,0,21,18,6,19,17,9,18,0,13,0,0,0,0,0,0,1,0,9,1,1,25,29,3,28,0,5,1,1,1,0,27,175.txt
0,0,13,0,0,0,24,0,0,7,0,6,5,29,0,26,30,5,17,24,22,30,23,20,22,26,23,6,17,8,21,2,18,0,21,18,6,19,24,9,18,0,13,0,0,0,0,0,0,0,0,9,4,3,30,29,3,28,0,5,4,5,4,0,7,177.txt
0,0,13,0,0,0,24,0,0,7,0,6,5,29,0,26,30,5,17,24,22,30,23,20,22,26,23,6,17,8,21,2,18,0,21,18,6,19,24,9,18,0,13,0,0,0,0,0,0,1,0,9,1,1,25,29,3,28,0,5,1,1,1,0,27,179.txt
0,0,13,0,0,0,24,0,0,7,0,6,5,29,0,26,30,5,17,24,22,30,23,20,22,26,23,6,17,8,21,2,18,0,21,0,6,1,24,0,18,0,13,0,0,0,0,0,0,1,0,9,1,1,25,0,0,0,0,5,1,1,1,0,27,182.txt
0,0,13,0,0,0,24,0,0,7,0,6,5,29,0,26,30,5,17,24,22,30,23,20,22,26,23,6,17,8,21,2,18,0,21,18,6,19,24,9,18,0,13,0,0,0,0,0,0,1,0,9,1,1,25,29,3,28,0,5,1,1,1,0,27,184.txt
0,0,13,0,0,0,24,0,0,7,0,6,5,29,0,26,30,5,17,24,22,30,23,20,22,26,23,6,17,8,21,2,18,0,21,18,6,19,24,9,18,0,13,0,0,0,0,0,0,0,0,9,6,11,5,29,3,28,0,5,2,3,2,0,2,188.txt
0,0,13,0,0,30,25,0,0,30,24,11,11,22,4,27,13,20,28,4,6,23,26,26,26,26,4,17,5,29,20,8,19,24,7,29,4,17,23,28,7,14,8,15,18,11,11,12,10,0,28,30,6,11,5,12,7,13,1,15,4,8,4,13,7,189.txt
0,0,13,0,0,0,24,0,0,7,0,6,5,29,0,26,30,5,17,24,22,30,23,20,22,26,23,6,17,8,21,2,18,0,21,18,6,19,24,9,18,0,13,0,2,0,0,0,0,0,2,9,4,3,30,29,3,28,0,5,3,3,6,0,10,191.txt
21,0,30,15,22,5,9,25,28,15,30,27,27,25,29,18,25,4,21,25,1,11,2,7,11,5,7,4,9,28,12,29,30,26,7,13,21,30,21,30,27,22,15,28,30,29,29,21,25,25,22,19,12,14,12,12,7,9,23,18,7,27,30,13,14,194.txt
0,0,13,0,0,0,24,0,0,7,0,6,5,29,0,26,30,5,17,24,22,30,23,20,22,26,23,6,17,8,21,2,18,0,21,18,6,19,24,9,18,0,13,0,0,0,0,0,0,1,0,9,1,1,25,29,3,28,0,5,1,1,1,7,27,197.txt
0,0,13,0,0,0,24,0,0,7,0,6,5,29,0,26,30,5,17,24,22,30,23,20,22,26,23,6,17,8,21,2,18,0,21,18,6,19,24,9,18,0,13,0,0,0,0,0,0,1,0,9,1,1,25,29,3,28,0,5,1,1,1,0,27,199.txt
0,0,13,0,0,30,25,0,0,30,14,11,11,28,4,27,13,13,28,4,18,23,26,26,26,27,4,18,4,29,15,16,3,14,2,29,21,17,23,28,4,4,4,1,1,12,12,12,13,13,28,30,26,7,8,25,29,13,10,8,5,8,5,17,12,203.txt
0,0,13,0,0,0,24,0,0,7,0,6,5,29,0,26,30,5,17,24,22,30,23,20,22,26,23,6,17,8,21,2,18,0,21,18,6,19,24,9,18,0,13,0,0,0,0,0,0,1,0,9,1,1,25,29,3,28,0,5,1,1,1,7,27,204.txt
0,0,13,0,0,30,24,0,0,30,24,11,11,12,4,27,8,11,28,4,5,23,6,6,6,26,24,10,5,29,22,8,22,27,2,29,4,17,23,27,9,9,10,3,3,11,11,12,10,13,7,6,4,3,30,13,29,13,16,3,4,8,13,13,12,209.txt
0,0,13,0,0,0,24,0,0,7,0,6,5,29,0,26,30,5,17,24,22,30,23,20,22,14,23,6,17,8,21,0,18,0,16,18,6,19,24,20,2,2,6,2,0,0,0,0,0,0,0,2,6,11,5,2,2,2,2,7,2,3,2,0,2,210.txt
0,0,13,0,0,0,24,0,0,7,0,6,5,29,0,26,30,5,17,24,22,30,23,20,22,26,23,6,17,8,21,2,18,0,21,18,6,19,24,9,18,0,13,0,0,0,0,0,0,1,0,9,1,1,25,29,3,28,0,5,1,1,1,0,27,212.txt
0,0,13,0,0,0,24,0,0,7,0,6,5,29,0,26,30,5,17,24,22,30,23,20,22,26,23,3,17,3,21,2,18,0,16,29,6,19,24,27,2,2,6,2,0,0,0,0,0,0,0,2,4,3,30,20,7,13,1,3,4,3,5,0,5,214.txt
16,0,2,26,22,1,6,24,5,16,22,5,7,9,8,20,6,21,22,29,16,19,21,16,3,1,2,6,2,8,27,11,9,15,21,18,9,10,8,22,18,13,13,7,0,2,2,8,2,9,0,9,12,26,12,29,3,28,0,30,26,20,19,25,21,217.txt
0,0,13,0,0,0,24,0,0,7,24,6,5,29,4,26,30,5,14,4,22,30,26,26,26,26,4,6,23,8,13,2,27,13,21,18,15,19,17,9,18,12,13,6,0,2,2,2,2,12,0,9,0,0,0,29,3,28,0,1,4,4,4,1,3,219.txt
0,0,13,0,0,0,24,0,0,7,24,6,5,29,4,26,30,5,28,4,22,30,26,26,26,26,4,6,23,8,13,2,27,13,21,18,15,19,24,9,18,0,13,0,0,2,2,2,2,13,0,9,0,0,0,29,3,28,0,1,27,8,5,13,5,220.txt
0,0,13,0,0,0,24,0,0,7,0,6,5,29,0,26,30,5,17,24,22,30,23,20,22,26,23,6,17,8,21,2,18,0,21,18,6,19,24,9,18,0,13,0,0,0,0,0,0,1,0,9,1,1,25,29,3,28,0,5,1,1,1,0,27,222.txt
0,0,13,0,0,0,24,0,0,7,24,6,5,29,4,26,30,5,14,4,22,30,26,26,26,26,4,6,23,8,13,2,27,13,21,18,18,19,24,9,18,0,13,0,0,2,2,2,2,1,0,9,1,1,25,29,3,28,0,3,1,1,1,1,27,225.txt
0,0,13,0,0,0,24,0,0,7,0,6,5,29,0,26,30,5,17,24,22,30,23,20,22,26,23,6,17,8,21,2,18,0,21,18,6,19,24,9,18,0,13,0,0,0,0,0,0,0,0,9,6,11,5,29,3,28,0,8,4,3,6,2,10,227.txt
0,0,13,0,0,0,24,0,0,7,0,6,5,29,0,26,30,5,17,24,22,30,23,20,22,26,23,6,17,8,21,2,18,0,21,18,6,19,24,9,18,0,13,0,0,0,0,0,0,1,0,9,1,1,25,29,3,28,0,5,1,1,1,0,27,229.txt
0,0,13,0,0,0,24,0,0,7,0,6,5,29,0,26,30,5,17,24,22,30,23,20,22,26,23,6,17,8,21,8,18,0,21,0,6,1,24,0,18,0,13,0,0,0,0,0,0,1,0,9,1,1,25,0,0,0,0,5,1,1,1,0,27,231.txt
16,0,13,0,0,0,30,30,30,7,0,13,13,2,0,26,12,28,17,13,22,30,23,20,22,26,23,3,21,3,4,17,12,9,16,18,6,8,24,9,2,2,6,2,0,0,0,0,0,0,0,2,2,2,2,2,2,2,2,29,2,0,2,2,2,236.txt
0,0,13,0,0,0,24,0,0,7,0,6,5,29,0,26,30,5,17,24,22,30,23,20,22,26,23,3,17,3,21,2,18,0,16,18,6,19,24,9,2,2,6,2,0,0,0,0,0,13,0,11,9,11,9,20,7,25,26,10,4,8,6,22,5,241.txt
0,0,13,0,0,0,24,0,0,7,0,6,5,29,0,26,30,5,17,24,22,30,23,20,22,26,23,6,17,8,21,2,18,0,21,18,6,19,24,9,18,0,13,0,0,0,0,0,0,13,0,9,4,3,7,29,3,28,0,3,11,4,3,0,5,242.txt
0,0,13,0,0,0,24,0,0,7,0,6,5,29,0,26,30,5,17,24,22,30,23,20,22,26,23,6,17,8,21,2,18,0,21,18,6,19,24,9,18,0,13,0,0,0,0,0,0,9,0,9,4,3,30,29,3,28,0,5,3,14,18,7,13,245.txt
0,0,13,0,0,0,24,0,0,7,0,6,5,29,0,26,30,5,17,24,22,30,23,20,22,26,23,6,17,8,21,2,18,0,21,18,6,19,24,9,18,0,13,0,0,0,0,0,0,0,0,9,4,3,30,29,3,28,0,3,4,5,4,0,7,247.txt
0,0,13,0,0,0,24,0,0,7,24,6,5,29,4,26,30,5,28,4,22,30,12,12,19,26,12,6,5,8,20,2,19,24,21,29,15,19,24,27,18,0,13,0,0,2,2,2,2,13,0,9,9,11,9,29,3,28,0,8,5,8,6,17,5,249.txt
0,20,0,27,0,0,24,0,0,9,0,6,5,29,0,0,4,5,17,0,0,0,0,20,0,0,23,0,17,0,0,19,18,0,0,0,6,25,17,0,0,0,0,0,4,0,0,0,0,1,4,0,1,1,25,0,0,0,0,5,1,1,1,0,27,250.txt
0,0,13,0,0,0,24,0,0,7,0,6,5,29,0,26,30,5,17,24,22,30,23,20,22,26,23,6,17,8,21,2,18,0,21,18,6,19,24,9,18,0,13,0,0,0,0,0,0,1,0,9,1,1,25,29,3,28,0,5,1,1,1,7,27,252.txt
16,0,13,23,0,0,30,30,30,7,0,13,13,2,14,26,12,21,17,29,22,30,21,17,3,1,2,6,2,8,27,11,9,8,21,18,6,10,24,9,18,0,13,0,0,0,0,0,0,0,0,9,2,2,2,29,3,28,0,29,4,0,4,0,5,256.txt
0,0,13,0,0,0,24,0,0,7,0,6,5,29,0,26,30,5,17,24,22,30,23,20,22,26,23,6,17,8,21,2,18,0,21,18,6,19,24,9,18,0,13,0,0,0,0,0,0,0,0,9,6,8,5,29,3,28,0,8,4,3,7,0,5,258.txt
0,0,13,0,0,0,24,0,0,7,0,6,5,29,0,26,30,5,17,24,22,30,23,20,22,26,23,6,17,8,21,2,18,0,21,18,6,19,24,9,18,0,13,0,0,0,0,0,0,0,0,9,4,3,30,29,3,28,0,5,4,3,6,7,10,260.txt
0,0,13,0,0,0,25,0,0,7,0,6,5,30,0,26,27,5,17,24,22,24,23,20,22,27,23,6,17,8,21,0,18,0,21,18,6,23,10,2,18,0,13,0,0,0,0,0,0,0,0,9,6,8,5,29,3,28,0,5,4,5,4,0,7,261.txt
0,0,13,0,0,0,24,0,0,7,0,6,5,29,0,26,30,5,17,24,22,30,23,20,22,26,23,6,17,8,21,2,18,0,21,18,6,19,24,9,18,0,13,0,0,0,0,0,0,1,0,9,1,1,25,29,3,28,0,5,1,1,1,0,27,264.txt
0,0,13,0,0,0,24,0,0,7,0,6,5,29,0,26,30,5,17,24,22,30,23,20,22,26,23,6,17,8,21,2,18,0,21,18,6,19,24,9,18,0,13,0,0,0,0,0,0,1,0,9,1,1,25,29,3,28,0,5,1,1,1,0,27,269.txt
0,0,13,0,0,0,24,0,0,7,0,6,5,29,0,26,30,5,17,24,22,30,23,20,22,26,23,6,17,8,21,2,18,0,21,18,6,19,24,9,18,0,13,0,4,0,0,0,0,1,4,9,1,1,25,29,3,28,0,5,1,1,1,7,27,272.txt
0,0,13,0,0,0,24,0,0,7,0,6,5,29,0,26,30,5,17,24,22,30,23,20,22,26,23,6,17,8,21,2,18,0,21,18,6,19,24,9,18,0,13,0,0,0,0,0,0,1,0,9,1,1,25,29,3,28,0,5,1,1,1,0,27,274.txt
0,0,13,0,0,28,15,0,0,30,24,0,0,12,3,27,8,11,28,3,5,15,6,6,6,26,17,7,15,29,6,9,6,6,2,29,21,4,23,28,9,9,10,1,1,8,8,4,7,12,7,6,4,3,30,12,7,1,1,3,4,12,0,13,7,276.txt
0,0,13,0,0,0,24,0,0,7,0,6,5,29,0,26,30,5,17,24,22,30,23,20,22,26,23,6,17,8,21,2,18,0,21,18,6,19,24,9,18,0,13,0,4,0,0,0,0,1,4,9,1,1,25,29,3,28,0,3,1,1,1,0,27,280.txt
0,0,13,0,0,0,24,0,0,7,18,6,5,29,0,26,30,5,17,24,22,30,23,20,22,26,23,6,17,8,21,0,18,0,21,19,6,19,24,9,18,0,18,0,0,0,0,0,0,1,0,13,1,1,25,29,3,28,0,5,1,1,1,0,27,282.txt
0,0,13,0,0,0,24,0,0,30,13,11,11,0,4,26,30,5,28,4,22,30,26,26,26,26,4,6,4,8,14,8,15,14,21,29,21,17,23,27,18,0,13,0,0,2,2,2,2,29,0,9,10,11,26,29,3,28,0,8,4,8,4,13,25,283.txt
0,0,13,0,0,0,24,0,0,7,0,6,5,29,0,26,30,5,17,24,22,30,23,20,22,26,23,6,17,8,21,2,18,0,21,18,6,19,24,9,18,0,13,0,0,0,0,0,0,1,0,9,1,1,25,29,3,28,0,5,1,1,1,0,27,284.txt
0,0,13,0,0,0,24,0,0,7,0,6,5,29,0,26,30,5,17,24,22,30,23,20,22,26,23,6,17,8,21,2,18,0,21,18,6,19,24,9,18,0,13,0,0,0,0,0,0,0,0,9,4,3,30,29,3,28,0,3,2,3,2,0,2,286.txt
0,0,13,0,0,30,24,0,0,30,24,11,11,12,4,27,8,11,14,4,5,15,26,26,26,26,4,7,15,29,6,2,6,6,7,29,21,11,23,27,8,14,9,1,1,12,12,4,13,7,6,5,4,3,30,6,7,6,6,3,4,8,4,1,7,288.txt
0,0,13,0,0,0,24,0,0,7,24,11,11,12,4,26,8,11,28,4,22,30,26,26,26,26,4,3,23,3,13,2,27,13,16,29,2,27,26,27,2,2,6,2,0,2,2,2,2,10,0,2,4,3,30,2,2,2,2,3,2,3,2,13,2,290.txt
0,0,13,0,0,0,24,0,0,7,25,6,5,29,4,26,30,5,14,4,22,30,27,27,27,26,4,6,24,8,15,8,3,14,21,19,18,19,24,2,18,0,13,0,0,2,2,2,2,13,0,9,6,11,5,29,3,28,0,4,4,4,5,1,3,293.txt
0,0,13,0,0,30,24,0,0,30,24,0,0,19,4,3,9,16,26,4,18,15,5,5,17,26,12,7,23,1,15,8,3,19,2,26,21,17,23,28,9,9,10,1,1,11,11,4,10,12,9,8,26,7,8,13,29,1,16,10,5,8,0,17,5,295.txt
21,0,29,15,22,1,9,13,28,6,20,28,27,18,29,19,16,19,7,27,20,9,19,15,3,8,20,26,19,10,11,29,30,26,16,27,21,16,21,13,2,2,6,20,27,27,10,10,22,29,15,2,25,25,4,15,22,22,9,26,14,19,29,21,20,297.txt
0,0,13,0,0,30,24,0,0,7,24,11,11,19,4,27,13,16,28,4,5,20,26,26,26,26,4,19,23,29,13,0,27,13,2,18,2,27,26,9,8,14,9,24,10,11,11,11,10,0,29,15,6,11,5,2,2,2,2,7,2,3,2,13,2,300.txt
0,0,13,0,0,0,24,0,0,7,0,6,5,29,0,26,30,5,17,24,22,30,23,20,22,26,23,6,17,8,21,2,18,0,21,18,6,19,24,9,18,0,13,0,0,0,0,0,0,1,0,9,1,1,25,29,3,28,0,5,1,1,1,0,27,303.txt
0,0,13,0,0,30,24,0,0,7,24,0,0,12,4,27,8,11,28,4,5,20,26,26,26,26,4,4,23,29,13,2,27,13,1,18,2,27,26,9,8,14,9,1,1,11,11,4,10,0,7,6,2,2,2,2,2,2,2,3,2,3,2,13,2,305.txt
0,0,13,0,0,0,24,0,0,7,0,6,5,29,0,26,30,5,17,24,22,30,23,20,22,26,23,3,17,3,21,2,18,0,16,18,6,19,24,9,2,2,6,2,0,0,0,0,0,0,0,2,2,2,2,6,7,6,6,3,4,0,4,0,3,307.txt
0,0,13,0,0,0,24,0,0,7,0,11,11,12,0,26,8,11,17,24,22,30,23,20,22,26,23,3,17,3,21,2,18,0,16,18,2,27,26,9,2,2,6,2,0,0,0,0,0,9,0,2,4,3,30,2,2,2,2,3,2,4,2,0,2,311.txt
0,0,13,0,0,0,24,0,0,7,0,6,5,29,0,26,30,5,17,24,22,30,23,20,22,26,23,6,17,8,21,2,18,0,21,18,6,19,24,9,18,0,13,0,0,0,0,0,0,0,0,9,2,2,2,29,3,28,0,5,4,5,4,0,5,313.txt
0,0,13,0,0,0,24,0,0,7,0,6,5,29,0,26,30,5,17,24,22,30,23,20,22,26,23,6,17,8,21,2,18,0,21,18,6,19,24,9,18,0,13,0,8,0,0,0,0,1,26,9,1,1,25,29,3,28,0,13,1,1,1,7,27,318.txt
0,0,13,0,0,0,24,0,0,30,24,6,5,29,4,26,30,5,14,4,22,30,26,26,26,26,4,6,23,8,13,2,27,13,21,7,15,19,24,3,18,0,13,0,0,2,2,2,2,13,0,9,4,3,7,29,3,28,0,3,4,4,4,1,5,320.txt
19,24,29,3,14,15,30,30,30,6,29,13,13,17,17,7,12,8,7,30,1,16,7,16,11,2,9,24,9,24,4,12,10,16,28,15,25,26,12,30,30,7,3,15,19,25,20,26,26,27,20,22,12,14,12,15,28,26,8,27,13,26,13,13,21,322.txt
19,24,29,3,14,15,30,30,30,6,29,13,13,17,17,7,12,8,7,30,1,16,7,16,11,2,9,24,9,24,4,12,10,16,28,15,25,26,12,30,30,7,3,15,19,25,20,26,26,27,20,22,12,14,12,15,28,26,8,27,13,26,13,13,21,323.txt
0,0,13,0,0,0,24,0,0,7,0,6,5,29,0,26,30,5,17,24,22,30,23,20,22,26,23,6,17,8,21,2,18,0,21,18,6,19,24,9,18,0,13,0,0,0,0,0,0,1,0,9,1,1,25,29,3,28,0,5,1,1,1,0,27,324.txt
0,0,13,0,0,0,24,0,0,30,24,11,11,22,6,26,13,20,28,5,22,30,12,12,19,26,18,3,5,3,6,8,6,6,16,29,21,16,23,17,5,5,6,4,2,6,6,2,9,29,2,29,26,11,8,13,28,12,16,15,15,13,6,18,25,326.txt
0,0,13,0,0,30,24,0,0,30,24,11,11,12,7,27,8,11,28,3,5,15,6,6,6,26,12,7,15,29,16,8,17,18,2,29,21,4,23,27,9,9,10,3,3,11,11,4,10,0,7,6,4,3,30,12,7,15,1,13,4,12,13,13,5,328.txt
0,0,13,0,0,0,24,0,0,7,0,6,5,29,0,26,30,5,17,24,22,30,23,20,22,26,23,6,17,8,21,2,18,0,21,0,6,1,17,0,18,0,13,0,0,0,0,0,0,1,0,9,1,1,25,0,0,0,0,5,1,1,1,0,27,329.txt
0,0,13,0,0,0,24,0,0,7,0,6,5,29,0,26,30,5,17,24,22,30,23,20,22,26,23,6,17,8,21,2,18,0,21,18,6,19,24,9,18,0,13,0,0,0,0,0,0,1,0,9,1,1,25,29,3,28,0,5,1,1,1,0,27,333.txt
0,0,13,0,0,0,24,0,0,7,0,6,5,29,0,26,30,5,17,24,22,30,23,20,22,26,23,6,17,8,21,2,18,0,21,18,6,19,24,9,18,0,13,0,0,0,0,0,0,1,0,9,1,1,25,29,3,28,0,5,1,1,1,0,27,335.txt
0,0,13,0,0,0,24,0,0,7,0,6,5,29,0,26,30,5,17,24,22,30,23,20,22,26,23,6,17,8,21,2,18,0,21,18,6,19,24,9,18,0,13,0,0,0,0,0,0,1,0,9,1,1,25,29,3,28,0,5,1,1,1,0,27,337.txt
0,0,13,0,0,0,24,0,0,7,3,6,5,29,6,26,30,5,10,5,22,30,26,26,26,26,4,6,5,8,20,8,19,24,21,18,14,19,17,9,18,0,13,0,4,26,30,2,9,13,4,9,9,11,9,29,3,28,0,8,9,30,7,17,30,341.txt
0,20,13,27,0,30,24,0,0,30,9,11,11,12,6,27,8,11,20,5,5,4,3,29,30,26,22,19,5,29,16,19,17,18,6,1,2,27,26,27,13,7,3,15,10,11,11,11,10,0,7,6,4,3,6,2,2,2,2,3,2,3,2,3,2,342.txt
0,0,13,0,0,30,24,0,0,7,0,6,5,29,0,27,30,5,17,24,5,20,23,20,22,26,23,9,17,29,21,2,18,0,2,18,6,19,24,9,9,9,10,15,19,11,11,5,10,15,1,1,6,11,5,12,7,9,26,7,4,8,18,7,15,344.txt
0,0,13,0,0,30,24,0,0,7,0,6,5,29,0,27,30,5,17,24,5,20,23,20,22,26,23,19,17,29,21,2,18,0,2,18,6,19,24,9,9,9,10,13,13,11,11,11,10,0,7,6,4,3,30,29,3,28,22,3,4,3,7,0,5,347.txt
0,0,13,0,0,30,24,0,0,30,24,11,11,12,4,27,8,11,28,4,5,15,26,26,26,26,4,7,23,29,13,2,27,13,2,29,25,26,0,27,9,9,10,1,1,12,12,4,13,13,7,6,4,3,30,10,13,13,10,3,4,8,13,13,5,349.txt
0,0,13,0,0,30,15,0,0,30,24,11,11,12,4,27,8,11,28,4,5,15,26,26,26,26,4,7,23,29,15,8,3,19,2,29,11,17,23,28,9,9,10,1,1,11,11,4,10,12,7,6,4,3,30,23,7,13,1,3,4,8,4,13,5,352.txt
0,1,11,0,30,30,25,16,12,12,24,11,11,19,18,15,14,16,24,16,2,12,26,26,26,10,4,19,23,29,3,0,3,3,12,16,4,7,21,19,9,9,10,15,18,11,11,11,10,18,9,8,6,11,5,12,20,13,1,7,27,9,27,13,25,354.txt
0,0,13,0,0,0,24,0,0,7,0,6,5,29,0,26,30,5,17,24,22,30,23,20,22,26,23,6,17,8,21,2,18,0,21,19,6,19,24,9,18,0,13,0,0,0,0,0,0,13,0,9,6,11,5,29,3,28,0,8,4,8,4,0,10,358.txt
0,0,13,0,0,0,24,0,0,7,0,6,5,29,0,26,30,5,17,24,22,30,23,20,22,26,23,6,17,8,21,2,18,0,21,18,6,19,24,9,18,0,13,0,2,0,0,0,0,1,2,9,1,1,25,29,3,28,0,5,1,1,1,0,27,360.txt
0,0,13,0,0,30,24,0,0,30,24,11,11,12,6,27,8,11,28,5,5,20,26,26,26,26,4,9,5,29,16,2,17,18,2,29,2,27,26,27,9,9,10,3,3,14,21,23,3,0,7,6,4,3,30,2,2,2,2,3,2,13,2,13,2,362.txt
0,0,13,0,0,0,24,0,0,7,0,11,11,19,0,26,30,5,17,24,22,30,23,20,22,26,23,3,17,3,21,8,18,0,16,29,21,17,23,27,2,2,6,2,0,0,0,0,0,0,0,2,9,11,9,12,7,13,9,10,4,3,27,22,11,364.txt
0,0,13,0,0,0,24,0,0,7,0,6,5,29,0,26,30,5,17,24,22,30,23,20,22,26,23,6,17,8,21,2,18,0,21,18,6,19,24,9,18,0,13,0,0,0,0,0,0,12,0,9,6,8,5,29,3,28,0,5,4,4,4,0,5,365.txt
0,0,13,0,0,0,24,0,0,7,0,6,5,29,0,26,30,5,17,24,22,30,23,20,22,26,23,6,17,8,21,2,18,0,21,25,6,19,24,27,18,0,13,0,4,0,0,0,0,8,4,9,4,3,3,29,3,28,0,3,7,13,10,7,13,368.txt
0,0,13,0,0,30,24,0,0,7,24,6,5,29,4,27,30,5,28,4,5,23,27,27,27,26,4,18,23,29,13,2,27,13,2,18,15,19,24,9,9,9,10,15,19,11,11,12,10,18,7,6,4,3,30,29,3,28,22,3,7,8,23,13,17,369.txt
0,0,13,0,0,0,24,0,0,7,0,6,5,29,0,26,30,5,17,24,22,30,23,20,22,26,23,6,17,8,21,2,18,0,21,18,6,19,24,9,18,0,13,0,0,0,0,0,0,1,0,9,1,1,25,29,3,28,0,5,1,1,1,0,27,371.txt
21,19,30,15,18,15,9,11,28,6,30,24,27,25,29,17,24,24,16,22,11,9,7,10,20,9,21,27,26,21,8,11,9,16,29,13,8,16,25,14,21,16,30,10,30,29,18,26,17,26,21,21,24,25,4,19,24,22,15,25,30,24,30,30,19,375.txt
0,0,13,0,0,30,24,0,0,30,24,11,11,12,4,27,8,11,28,4,5,23,26,26,26,26,4,18,23,29,13,8,27,13,1,29,25,26,12,27,8,14,9,3,3,12,12,12,13,0,7,6,4,3,30,12,7,13,26,3,4,8,4,13,5,377.txt
0,0,13,0,0,0,24,0,0,7,0,6,5,29,0,26,30,5,17,24,22,30,23,20,22,26,23,6,17,8,21,2,18,0,21,18,6,19,24,9,18,0,13,0,0,0,0,0,0,1,0,9,1,1,25,29,3,28,0,5,1,1,1,0,27,380.txt
19,20,29,15,3,1,3,4,28,15,26,27,27,6,25,30,16,6,21,15,20,8,17,15,3,7,7,11,10,10,18,17,12,9,10,14,2,27,26,30,29,11,6,20,27,10,10,10,12,11,5,2,24,25,21,2,2,2,2,18,2,3,22,20,2,382.txt
0,0,13,0,0,0,24,0,0,7,0,6,5,29,0,26,30,5,17,24,22,30,23,20,22,26,23,6,17,8,21,2,18,0,21,18,6,19,24,9,18,0,13,0,0,0,0,0,0,1,0,9,1,1,25,29,3,28,0,5,1,1,1,0,27,385.txt
23,0,29,3,22,15,30,30,30,19,29,13,13,6,2,7,12,24,21,22,1,8,9,14,11,5,7,4,26,28,8,17,12,9,1,13,2,27,26,14,27,22,15,1,1,29,25,21,25,23,22,19,25,5,21,2,2,2,2,18,2,24,2,30,2,386.txt
0,0,13,0,0,30,24,0,0,30,13,11,23,22,22,27,13,20,28,23,6,23,12,12,19,26,11,18,4,29,13,16,27,13,2,29,21,11,23,27,9,9,10,15,19,12,12,12,13,5,28,30,9,11,9,12,7,9,1,8,4,8,28,13,13,387.txt
0,0,13,0,0,30,24,0,0,30,24,11,11,12,6,27,8,11,28,5,5,20,6,6,6,26,12,9,5,29,16,2,17,18,2,29,2,27,26,27,9,9,10,5,6,11,11,23,10,3,7,6,4,3,30,2,2,2,2,3,2,3,2,13,2,391.txt
0,0,13,0,0,0,24,0,0,30,24,11,11,19,4,26,13,16,28,4,22,30,26,26,26,26,4,3,4,3,13,0,27,13,16,29,21,11,23,27,2,2,6,2,0,2,2,2,2,12,0,27,6,8,5,10,7,13,1,8,4,8,4,13,5,394.txt
0,0,13,0,0,0,25,0,0,7,0,6,5,29,0,26,30,5,17,24,22,30,23,20,22,26,23,6,17,8,21,9,18,0,21,18,6,19,24,20,18,0,13,0,2,0,0,0,0,0,2,9,4,3,30,13,21,1,16,3,3,3,7,0,5,395.txt
0,0,13,0,0,0,24,0,0,7,0,6,5,29,0,26,30,5,17,24,22,30,23,20,22,26,23,6,17,8,21,0,18,0,21,19,6,19,24,2,18,0,13,0,0,0,0,0,0,1,0,9,1,1,25,29,3,28,0,5,1,1,1,0,27,397.txt
16,0,13,23,0,0,1,1,1,7,0,1,1,1,1,26,1,21,17,1,22,30,1,1,1,1,2,6,2,8,1,1,1,1,21,18,6,8,24,9,18,0,13,0,0,0,0,0,0,1,0,9,1,1,25,29,3,28,0,5,1,1,1,0,27,400.txt
0,1,11,0,24,30,24,15,13,14,0,6,5,29,0,21,30,5,0,24,5,20,23,0,22,3,0,2,0,17,21,2,0,0,11,18,1,19,1,9,9,9,10,1,1,11,11,26,10,1,3,4,1,1,25,29,3,28,4,0,1,1,1,0,27,402.txt
0,0,13,0,0,0,24,0,0,7,24,11,11,12,4,26,8,11,28,4,22,30,26,26,26,26,4,6,23,8,13,2,27,13,16,18,2,27,26,9,2,2,6,2,0,2,2,2,2,0,0,2,4,3,30,2,2,2,2,3,2,3,2,13,2,405.txt
0,0,13,0,0,0,24,0,0,7,0,6,5,29,0,26,30,5,17,24,22,30,23,20,22,26,23,6,17,8,21,2,18,0,21,18,6,19,24,9,18,0,13,0,4,0,0,0,0,9,4,9,4,3,6,29,3,28,0,5,4,5,5,0,9,407.txt
5,0,4,3,16,5,30,30,30,15,29,13,13,11,2,7,12,27,16,29,8,8,21,2,8,5,7,27,14,17,27,11,9,11,2,14,4,11,23,13,9,9,10,1,1,11,11,26,10,0,19,20,3,5,21,10,7,13,1,28,4,6,4,13,5,411.txt
0,0,13,0,0,30,24,0,0,30,24,11,11,12,6,27,8,11,28,5,5,23,6,6,6,26,17,18,5,29,6,2,6,6,2,29,25,26,12,27,9,9,10,5,6,8,8,27,7,13,7,6,4,3,30,13,18,14,24,3,30,13,10,16,12,413.txt
0,0,13,0,0,0,24,0,0,7,0,6,5,29,0,26,30,5,17,24,22,30,23,20,22,26,23,6,17,8,21,2,18,0,21,18,6,19,24,9,18,0,13,0,0,0,0,0,0,0,0,9,4,3,30,29,3,28,0,5,4,3,7,0,5,416.txt
16,0,2,23,23,1,1,1,1,16,22,1,1,1,1,20,1,21,22,1,16,19,1,1,1,1,2,6,2,8,1,1,1,1,21,20,6,10,24,9,18,0,13,0,0,0,0,0,0,0,0,9,18,21,20,29,3,28,0,5,6,14,23,7,5,417.txt
0,0,13,0,0,0,24,0,0,7,0,6,5,29,0,26,30,5,17,24,22,30,23,20,22,26,23,6,17,8,21,0,18,0,21,19,6,19,24,2,18,0,13,0,0,0,0,0,0,13,0,9,6,7,5,3,3,3,0,5,3,8,5,0,10,419.txt
0,0,13,0,0,0,24,0,0,7,3,6,5,29,4,26,30,5,3,4,22,30,26,26,26,26,4,6,23,8,13,2,27,13,21,18,15,19,24,9,18,0,13,0,0,2,2,2,2,22,0,9,2,2,2,29,3,28,0,5,4,4,4,1,7,421.txt
0,0,13,0,0,0,24,0,0,7,0,6,5,29,0,26,30,5,17,24,22,30,23,20,22,26,23,6,17,8,21,2,18,0,21,18,6,19,24,9,18,0,13,0,0,0,0,0,0,1,0,9,1,1,25,29,3,28,0,5,1,1,1,0,27,423.txt
0,0,13,0,0,0,24,0,0,30,24,11,11,12,4,26,8,11,28,4,22,30,6,6,6,26,17,3,23,3,13,2,27,13,16,29,25,26,12,27,2,2,6,4,0,2,2,2,2,0,0,2,12,14,12,13,21,14,10,21,16,8,0,16,12,425.txt
0,0,13,0,0,0,24,0,0,7,18,6,5,29,0,26,30,5,17,24,22,30,23,20,22,26,23,6,17,8,21,2,18,0,21,9,6,19,24,3,18,0,18,0,0,0,0,0,0,1,0,13,1,1,25,29,3,28,0,3,1,1,1,0,27,427.txt
0,0,13,0,0,0,24,0,0,7,0,6,5,29,0,26,30,5,17,24,22,30,23,20,22,26,23,6,17,8,21,2,18,0,21,18,6,19,24,9,18,0,13,0,0,0,0,0,0,1,0,9,1,1,25,29,3,28,0,5,1,1,1,0,27,430.txt
0,0,13,0,0,30,24,0,0,30,24,11,11,12,4,27,8,11,14,4,5,20,26,26,26,26,4,7,23,29,13,2,27,13,7,9,4,11,23,27,8,14,9,1,1,11,11,4,10,0,6,5,4,3,30,12,7,13,1,3,4,8,4,1,7,434.txt
0,0,13,0,0,0,24,0,0,7,24,6,5,29,4,26,30,5,28,4,22,30,26,26,26,26,4,6,13,8,16,2,17,18,21,18,18,19,24,9,18,0,13,0,0,2,2,16,2,9,0,9,4,3,30,29,3,28,0,5,7,14,18,13,13,436.txt
0,0,13,0,0,0,24,0,0,7,0,6,5,29,0,26,30,5,17,24,22,30,23,20,22,26,23,6,17,8,21,2,18,0,21,18,6,19,24,9,18,0,13,0,0,0,0,0,0,1,0,9,1,1,25,29,3,28,0,5,1,1,1,0,27,439.txt
0,0,13,0,0,0,24,0,0,7,0,6,5,29,0,26,30,5,17,24,22,30,23,20,22,26,23,6,17,8,21,8,18,0,21,19,6,19,24,9,18,0,13,0,0,0,0,0,0,13,0,9,9,11,9,29,3,28,0,8,4,13,5,0,10,444.txt
0,0,13,0,0,0,24,0,0,7,0,6,5,29,0,26,30,5,17,24,22,30,23,20,22,26,23,6,17,8,21,2,18,0,21,18,6,19,24,9,18,0,13,0,0,0,0,0,0,9,0,9,4,3,30,29,3,28,0,3,4,3,4,0,15,447.txt
0,0,13,0,0,0,24,0,0,30,13,11,11,22,4,26,13,20,14,4,22,30,26,26,26,26,4,3,4,3,13,2,27,13,16,29,7,11,22,7,2,2,2,20,5,10,10,2,9,13,26,3,0,0,0,25,26,9,10,1,6,8,14,1,12,449.txt
0,0,13,0,0,0,24,0,0,7,0,6,5,29,0,26,30,5,17,24,5,30,23,20,22,26,23,9,17,29,21,2,18,0,2,18,6,19,24,9,9,9,10,14,15,11,11,23,10,1,7,6,1,1,25,8,10,8,4,5,1,1,1,7,27,452.txt
0,0,13,0,0,0,24,0,0,7,0,11,11,12,0,26,8,11,17,24,22,30,23,20,22,26,23,26,17,13,21,8,18,0,16,18,2,27,26,20,5,5,6,8,4,0,0,0,0,0,4,2,4,3,30,2,2,2,2,3,2,3,2,0,2,454.txt
0,0,13,0,0,0,24,0,0,7,0,6,5,29,0,26,30,5,17,24,22,30,23,20,22,14,23,6,17,8,21,2,18,0,21,18,6,19,24,9,18,0,13,0,0,0,0,0,0,0,0,9,4,3,30,29,3,28,0,5,3,3,7,0,5,456.txt
0,0,13,0,0,0,24,0,0,7,18,6,5,29,0,26,30,5,17,24,22,30,23,20,22,26,23,6,17,8,21,2,18,0,21,18,6,19,24,9,18,0,18,0,0,0,0,0,0,1,0,13,1,1,25,29,3,28,0,5,1,1,1,0,27,458.txt
0,0,13,0,0,0,24,0,0,7,0,11,11,12,0,26,8,11,17,24,22,30,23,20,22,26,23,3,17,3,21,2,18,0,16,18,2,27,26,9,2,2,6,2,0,0,0,0,0,0,0,2,4,3,30,2,2,2,2,3,2,0,2,0,2,460.txt
0,0,13,0,0,30,24,0,0,30,24,6,5,29,4,27,30,5,28,4,5,20,26,26,26,26,4,19,23,29,13,2,27,13,2,22,15,19,24,3,9,9,10,15,19,11,11,11,10,0,7,6,4,3,30,12,7,23,1,3,7,11,18,13,11,463.txt
0,0,13,0,0,30,24,0,0,30,24,0,0,19,4,27,18,16,28,4,18,20,26,26,26,26,4,19,23,29,15,0,3,19,2,29,2,27,26,27,8,14,9,1,1,11,11,11,10,0,8,7,6,8,5,2,2,2,2,7,2,8,2,13,2,465.txt
0,0,13,0,0,0,24,0,0,30,24,6,5,29,4,26,30,5,14,4,22,30,26,26,26,26,4,3,23,3,13,2,27,13,16,29,14,19,24,27,2,2,6,2,0,2,2,2,2,0,0,2,4,3,30,6,7,6,6,3,4,5,4,1,5,469.txt
16,0,2,23,23,1,30,30,30,16,22,13,13,2,17,20,12,21,22,25,16,19,2,16,3,1,2,6,2,8,11,26,29,11,21,20,6,8,17,22,18,0,13,0,2,0,0,0,0,0,2,9,2,2,2,29,3,28,0,29,3,5,6,7,7,472.txt
0,0,13,0,0,30,24,0,0,30,3,11,11,12,4,27,8,11,10,4,5,12,26,26,26,26,4,19,23,29,13,2,27,13,1,1,21,11,23,27,8,14,9,15,30,11,11,11,10,14,6,5,4,3,30,6,29,6,6,3,30,5,6,30,3,473.txt
0,0,13,0,0,0,24,0,0,7,0,6,5,29,0,26,30,5,17,24,22,30,23,20,22,26,23,6,17,8,21,2,18,0,21,18,6,19,24,9,18,0,13,0,0,0,0,0,0,12,0,9,4,3,30,29,3,28,0,5,4,4,4,0,3,475.txt
0,0,13,0,0,30,24,0,0,7,24,6,5,29,4,27,30,5,28,4,5,20,26,26,26,26,4,19,23,29,13,2,27,13,2,18,14,19,24,9,9,9,10,1,1,11,11,11,10,0,7,6,4,3,30,29,3,28,22,5,4,3,4,13,7,477.txt
0,0,13,0,0,0,24,0,0,7,0,6,5,29,0,26,30,5,17,24,22,30,23,20,22,26,23,6,17,8,21,2,18,0,21,18,6,19,24,9,18,0,13,0,0,0,0,0,0,0,0,9,4,3,30,29,3,28,0,5,4,0,4,0,5,479.txt
0,0,13,0,0,30,24,0,0,7,0,11,11,12,0,27,8,11,17,24,5,20,23,20,22,26,23,7,17,29,21,2,18,0,2,18,2,27,26,9,9,9,10,1,1,11,11,4,10,0,7,6,4,3,30,2,2,2,2,3,2,3,2,0,2,481.txt
0,0,13,0,0,0,24,0,0,7,0,6,5,29,0,26,30,5,17,24,22,30,23,20,22,26,23,6,17,8,21,2,18,0,21,18,6,19,24,9,18,0,13,0,0,0,0,0,0,1,0,9,1,1,25,29,3,28,0,5,1,1,1,0,27,485.txt
0,0,13,0,0,0,24,0,0,7,0,6,5,29,0,26,30,5,17,24,22,30,23,20,22,26,23,6,17,8,21,2,18,0,21,18,6,19,24,9,18,0,13,0,0,0,0,0,0,1,0,9,1,1,25,29,3,28,0,5,1,1,1,0,27,487.txt
0,0,13,0,0,30,24,0,0,7,0,6,5,29,0,27,30,5,17,24,6,20,23,20,22,26,23,7,17,29,21,2,18,0,7,18,6,19,24,9,8,14,9,27,18,11,11,4,10,15,28,30,6,11,5,12,20,13,1,7,27,5,5,0,9,488.txt
0,0,13,0,0,0,24,0,0,7,0,6,5,29,0,26,30,5,17,24,22,30,23,20,22,26,23,6,17,8,21,2,18,0,21,18,6,19,24,9,18,0,13,0,0,0,0,0,0,1,0,9,1,1,25,29,3,28,0,5,1,1,1,0,27,491.txt
0,0,13,0,0,0,24,0,0,7,0,6,5,29,0,26,30,5,17,24,22,30,23,20,22,26,23,6,17,8,21,2,18,0,21,18,6,19,24,9,18,0,13,0,0,0,0,0,0,0,0,9,4,3,30,29,3,28,0,5,4,3,4,0,5,492.txt
0,0,13,0,0,0,24,0,0,30,24,11,11,12,4,26,8,11,28,4,22,30,26,26,26,26,4,3,23,3,13,2,27,13,16,29,2,27,26,27,2,2,6,2,0,2,2,2,2,0,0,2,4,3,30,2,2,2,2,3,2,4,2,13,2,494.txt
0,0,13,0,0,30,15,0,0,30,24,11,11,12,4,27,8,11,28,4,5,15,26,26,26,26,4,7,23,29,15,0,16,14,2,29,8,17,23,27,9,9,10,1,1,12,12,4,13,27,7,6,4,3,30,12,7,13,1,3,4,8,6,13,15,496.txt
0,0,13,0,0,0,24,0,0,7,0,6,5,29,0,26,30,5,17,24,22,30,23,20,22,26,23,6,17,8,21,2,18,0,21,25,6,19,24,27,18,0,13,0,0,0,0,0,0,1,0,9,1,1,25,29,3,28,0,11,1,1,1,0,27,498.txt
0,0,13,0,0,0,24,0,0,7,0,6,5,29,0,26,30,5,17,24,22,30,23,20,22,14,23,6,17,8,21,2,18,0,21,18,6,19,24,9,18,0,13,0,0,0,0,0,0,4,0,9,4,3,30,29,3,28,0,5,4,8,4,0,5,500.txt
0,0,13,0,0,30,24,0,0,30,24,11,11,12,4,27,8,11,28,4,5,15,26,26,26,26,4,7,23,29,13,2,27,13,2,29,21,11,23,27,9,9,10,1,1,11,11,4,10,12,7,6,4,3,30,13,29,13,10,3,8,8,4,17,11,502.txt
0,0,13,0,0,30,24,0,0,7,0,11,11,12,0,27,8,11,17,24,5,20,23,20,22,26,23,7,17,28,21,2,18,0,2,18,2,27,26,9,9,9,10,5,6,11,11,21,10,0,22,19,4,3,30,2,2,2,2,29,2,3,2,0,2,503.txt
0,0,13,0,0,0,24,0,0,7,24,6,5,29,4,26,30,5,28,4,22,30,6,6,6,14,12,15,15,11,16,2,17,18,16,18,14,19,24,9,5,5,6,8,4,26,30,10,9,0,4,2,3,5,21,10,21,14,10,3,5,6,7,17,5,505.txt
0,0,13,0,0,0,24,0,0,7,0,6,5,29,0,26,30,5,17,24,22,30,23,20,22,26,23,6,17,8,21,2,18,0,21,18,6,19,24,9,18,0,13,0,0,0,0,0,0,1,0,9,1,1,25,29,3,28,0,5,1,1,1,0,27,507.txt
0,0,13,0,0,0,24,0,0,7,24,11,11,12,4,26,8,11,28,4,22,30,26,26,26,26,4,3,23,3,13,2,27,13,16,18,2,27,26,9,2,2,6,2,0,2,2,2,2,0,0,2,4,3,30,2,2,2,2,3,2,11,2,13,2,510.txt
0,0,13,0,0,0,24,0,0,7,0,6,5,29,0,26,30,5,17,24,22,30,23,20,22,26,23,6,17,8,21,2,18,0,21,18,6,19,17,9,18,0,13,0,0,0,0,0,0,0,0,9,4,3,30,29,3,28,0,5,4,14,6,0,5,513.txt
0,0,13,0,0,0,24,0,0,7,0,6,5,29,0,26,30,5,17,24,22,30,23,20,22,26,23,6,17,8,21,2,18,0,21,18,6,19,24,9,18,0,13,0,0,0,0,0,0,1,0,9,1,1,25,29,3,28,0,5,1,1,1,0,27,516.txt
0,24,13,27,0,0,24,0,0,30,9,11,11,12,3,26,8,11,20,3,22,30,6,6,6,26,24,26,15,11,16,5,17,18,16,1,22,16,19,27,5,5,6,18,2,6,6,10,9,0,2,2,4,3,30,11,18,19,24,3,30,30,0,30,12,518.txt
19,0,29,15,22,1,6,5,5,15,28,27,27,2,29,6,16,27,16,29,1,10,21,22,3,9,16,3,20,10,27,11,9,11,16,22,15,10,24,15,14,15,6,2,4,26,30,16,22,0,4,2,29,21,19,20,7,20,1,24,4,17,18,13,5,521.txt
16,0,4,23,23,1,30,30,30,15,29,13,13,2,14,7,12,27,16,29,1,27,21,22,3,2,9,6,7,8,27,11,9,8,21,20,6,10,24,22,18,0,13,0,0,0,0,0,0,0,0,9,29,21,19,6,7,6,6,19,4,4,4,0,5,524.txt
0,0,13,0,0,30,21,0,0,30,24,7,6,8,4,27,7,10,28,4,5,12,26,26,26,16,4,19,23,17,13,2,27,13,2,29,21,30,23,27,9,9,10,22,25,8,8,26,7,12,19,20,4,3,30,12,7,13,1,28,4,8,4,13,5,527.txt
0,0,13,0,0,0,24,0,0,7,0,6,5,29,0,26,30,5,17,24,22,30,23,20,22,26,23,6,17,8,21,2,18,0,21,18,6,19,24,9,18,0,13,0,0,0,0,0,0,1,0,9,1,1,25,29,3,28,0,5,1,1,1,0,27,529.txt
0,0,13,0,0,0,24,0,0,7,24,6,5,29,6,26,30,5,28,5,22,30,6,6,6,26,18,6,5,8,16,2,17,18,21,18,18,19,24,9,18,0,13,0,0,2,2,2,2,0,0,9,4,3,30,29,3,28,0,5,2,3,2,3,2,530.txt
0,0,13,0,0,0,24,0,0,7,0,6,5,29,0,26,30,5,17,24,22,30,23,20,22,16,23,6,17,8,21,2,18,0,21,18,6,19,24,9,18,0,13,0,4,0,0,0,0,0,4,9,4,3,30,29,3,28,0,3,2,3,2,0,2,532.txt
0,0,13,0,0,30,24,0,0,30,24,0,0,12,4,27,8,11,28,4,5,15,6,6,6,26,24,7,23,29,13,2,27,13,2,29,22,11,23,27,9,9,10,1,1,8,8,4,7,12,7,6,4,3,30,27,6,13,10,3,16,8,0,30,12,534.txt
0,0,13,0,0,0,24,0,0,7,0,6,5,29,0,26,30,5,17,24,22,30,23,20,22,26,23,6,17,8,21,2,18,0,21,18,6,19,24,9,18,0,13,0,4,0,0,0,0,1,4,9,1,1,25,29,3,28,0,5,1,1,1,0,27,536.txt
0,0,13,0,0,0,24,0,0,7,0,6,5,29,0,26,30,5,17,24,22,30,23,20,22,26,23,6,17,8,21,2,18,0,21,18,6,19,24,9,18,0,13,0,0,0,0,0,0,1,0,9,1,1,25,29,3,28,0,5,1,1,1,0,27,538.txt
0,0,13,0,0,30,25,0,0,30,3,11,11,19,6,27,13,16,10,5,18,20,12,12,12,26,18,7,5,29,16,6,17,18,2,1,2,27,26,28,4,4,4,5,6,11,11,4,10,0,8,7,9,11,9,2,2,2,2,10,2,3,2,3,2,541.txt
0,0,13,0,0,0,24,0,0,7,0,6,5,29,0,26,30,5,17,24,22,30,23,20,22,26,23,6,17,8,21,2,18,0,21,18,6,19,24,9,18,0,13,0,0,0,0,0,0,0,0,9,6,8,5,29,3,28,0,5,27,3,7,0,5,543.txt
0,0,13,0,0,0,24,0,0,7,0,6,5,29,0,26,30,5,17,24,22,30,23,20,22,14,23,6,17,8,21,2,18,0,21,18,6,19,24,9,18,0,13,0,0,0,0,0,0,1,0,9,1,1,25,29,3,28,0,5,1,1,1,0,27,545.txt
0,0,13,0,0,0,24,0,0,7,24,6,5,29,4,26,30,5,28,4,5,30,26,26,26,26,4,19,23,29,13,2,27,13,26,18,15,19,24,9,17,17,1,1,1,23,25,11,18,19,7,6,4,3,3,29,3,28,22,5,4,19,5,13,25,549.txt
0,0,13,0,0,0,24,0,0,7,0,6,5,29,0,26,30,5,17,24,22,30,23,20,22,26,23,6,17,8,21,2,18,0,21,18,6,19,24,9,18,0,13,0,0,0,0,0,0,0,0,9,4,3,30,29,3,28,0,3,4,3,7,0,5,551.txt
0,0,13,0,0,0,24,0,0,7,0,6,5,29,0,26,30,5,17,24,22,30,23,20,22,26,23,6,17,8,21,2,18,0,21,18,6,19,24,9,18,0,13,0,0,0,0,0,0,0,0,9,4,3,30,29,3,28,0,5,4,0,4,0,7,554.txt
0,0,13,0,0,0,15,0,0,30,24,11,11,12,3,26,8,11,28,3,22,30,6,6,6,26,12,3,15,3,16,8,17,18,16,29,21,4,23,27,5,5,6,2,4,26,30,2,9,0,4,2,4,3,30,12,7,15,1,3,4,12,13,13,5,557.txt
0,0,13,0,0,30,24,0,0,30,24,11,11,12,4,27,8,11,28,4,5,15,26,26,26,26,4,7,23,29,13,2,27,13,2,29,11,11,23,27,9,9,10,13,18,11,11,4,10,0,7,6,4,3,30,21,7,13,1,3,4,8,4,13,5,558.txt
0,0,13,0,0,0,24,0,0,7,0,6,5,29,0,26,30,5,17,24,22,30,23,20,22,26,23,3,17,3,21,2,18,0,16,18,6,19,24,9,2,2,6,2,0,0,0,0,0,0,0,2,4,3,30,2,2,2,2,3,2,0,2,0,2,561.txt
5,0,29,3,16,5,30,30,30,15,29,13,13,6,2,7,12,1,16,25,1,8,2,2,8,5,7,4,14,28,11,17,12,9,1,15,21,16,23,13,8,14,9,24,21,25,13,21,26,14,22,19,25,5,21,12,7,12,1,16,4,6,6,1,25,564.txt
0,0,13,0,0,0,24,0,0,7,0,6,5,29,0,26,30,5,17,24,22,30,23,20,22,26,23,6,17,8,21,2,18,0,21,18,6,19,24,9,18,0,13,0,0,0,0,0,0,0,0,9,4,3,30,29,3,28,0,5,23,5,23,0,5,566.txt
0,0,13,0,0,30,24,0,0,30,24,0,0,19,4,27,30,5,28,4,5,12,26,26,26,26,4,19,23,29,13,2,27,13,7,29,4,11,23,27,8,14,9,1,1,11,11,11,10,12,7,6,6,11,5,12,7,13,26,10,4,8,4,13,5,568.txt
0,0,13,0,0,0,24,0,0,7,0,6,5,29,0,26,30,5,17,24,22,30,23,20,22,26,23,6,17,8,21,2,18,0,21,18,6,19,24,9,18,0,13,0,0,0,0,0,0,0,0,9,4,3,30,29,3,28,0,3,4,8,4,0,7,572.txt
0,0,13,0,0,0,24,0,0,7,24,6,5,29,4,26,30,5,28,4,22,30,6,6,6,26,18,6,23,8,13,2,27,13,21,18,14,19,24,9,18,0,13,0,0,2,2,2,2,12,0,9,4,3,3,29,3,28,0,3,4,8,7,13,10,574.txt
0,0,13,0,0,0,24,0,0,7,0,6,5,29,0,26,30,5,17,24,22,30,23,20,22,26,23,6,17,8,21,2,18,0,21,18,6,19,24,9,18,0,13,0,2,0,0,0,0,0,2,9,4,3,30,29,3,28,0,3,4,0,4,0,3,576.txt
0,0,13,0,0,0,24,0,0,7,0,6,5,29,0,26,30,5,17,24,22,30,23,20,22,26,23,6,17,8,21,2,18,0,21,18,6,19,24,9,18,0,13,0,0,0,0,0,0,1,0,9,1,1,25,29,3,28,0,5,1,1,1,0,27,578.txt
0,0,13,0,0,30,24,0,0,30,24,6,5,29,4,27,30,5,28,4,5,20,6,6,6,26,12,4,15,29,16,2,17,18,2,2,14,19,24,15,9,9,10,1,1,11,11,4,10,0,7,6,12,26,12,2,2,2,2,3,2,17,2,3,2,580.txt
0,0,13,0,0,0,24,0,0,7,0,6,5,29,0,26,30,5,17,24,22,30,23,20,22,26,23,6,17,8,21,2,18,0,21,18,6,19,24,9,18,0,13,0,0,0,0,0,0,1,0,9,1,1,25,29,3,28,0,5,1,1,1,0,27,582.txt
0,0,13,0,0,0,24,0,0,7,0,6,5,29,0,26,30,5,17,24,22,30,23,20,22,26,23,6,17,8,21,2,18,0,21,18,6,19,24,9,18,0,13,0,0,0,0,0,0,1,0,9,1,1,25,29,3,28,0,5,1,1,1,7,27,584.txt
16,0,4,3,16,1,30,30,30,15,29,13,13,2,17,7,12,4,16,25,1,27,2,17,3,2,9,3,9,3,4,12,10,8,16,29,14,10,24,17,2,2,6,2,0,2,2,2,2,0,0,2,12,26,12,12,7,12,1,21,6,8,4,13,5,586.txt
0,0,13,0,0,0,24,0,0,7,0,6,5,29,0,26,30,5,17,24,22,30,23,20,22,26,23,6,17,8,21,2,18,0,21,18,6,19,24,9,18,0,13,0,0,0,0,0,0,13,0,9,9,11,9,29,3,28,0,5,4,8,4,0,10,588.txt
0,0,13,0,0,25,24,0,0,7,24,6,5,29,4,23,30,5,14,4,13,20,26,26,26,26,4,9,5,29,16,2,17,18,7,18,18,19,24,9,8,14,9,15,30,11,11,23,10,0,28,30,10,11,10,29,3,28,22,15,7,0,16,15,7,591.txt
0,0,13,0,0,0,24,0,0,7,0,0,0,12,0,26,30,5,17,24,22,30,23,20,22,26,23,3,17,3,21,2,18,0,16,18,21,11,23,9,2,2,6,2,0,0,0,0,0,0,0,2,4,3,30,10,7,13,26,3,4,3,4,0,5,594.txt
0,0,13,0,0,0,24,0,0,7,0,6,5,29,0,26,30,5,17,24,22,30,23,20,22,26,23,6,17,8,21,2,18,0,21,18,6,19,24,9,18,0,13,0,0,0,0,0,0,1,0,9,1,1,25,29,3,28,0,5,1,1,1,0,27,596.txt
0,0,0,0,0,0,24,0,0,9,24,6,5,29,4,26,30,5,14,4,22,30,26,26,26,23,4,6,23,8,13,2,27,13,21,6,15,18,24,6,18,0,13,0,0,2,2,2,2,1,0,9,1,1,25,22,19,27,7,5,1,1,1,18,27,598.txt
0,0,13,0,0,0,24,0,0,7,0,6,5,29,0,26,30,5,17,24,22,30,23,20,22,26,23,6,17,8,21,2,18,0,21,18,6,19,24,9,18,0,13,0,0,0,0,0,0,30,0,9,4,3,7,29,3,28,0,5,4,5,29,0,10,600.txt
0,0,13,0,0,0,24,0,0,7,0,6,5,29,0,26,30,5,17,24,22,30,23,20,22,26,23,6,17,8,21,2,18,0,21,18,6,19,24,9,18,0,13,0,0,0,0,0,0,1,0,9,1,1,25,29,3,28,0,5,1,1,1,0,27,603.txt
0,0,13,0,0,0,24,0,0,7,24,11,11,12,22,26,8,11,28,19,22,30,26,26,26,26,4,3,23,3,13,2,27,13,16,18,2,27,26,9,2,2,6,2,0,2,2,2,2,0,0,2,4,3,30,2,2,2,2,11,2,8,2,13,2,604.txt
0,0,13,0,0,0,24,0,0,7,0,6,5,29,0,26,30,5,17,24,22,30,23,20,22,14,23,6,17,8,21,2,18,0,21,19,6,19,24,9,18,0,13,0,0,0,0,0,0,0,0,9,6,8,5,29,3,28,0,8,3,3,7,0,10,606.txt
0,0,13,0,0,0,24,0,0,7,0,6,5,29,0,26,30,5,17,24,22,30,23,20,22,26,23,6,17,8,21,2,18,0,21,18,6,19,24,9,18,0,13,0,0,0,0,0,0,8,0,9,4,3,30,29,3,28,0,5,3,3,27,0,9,607.txt
0,0,13,0,24,30,24,15,13,30,24,11,11,19,4,27,13,16,24,4,19,20,26,26,26,10,4,7,23,29,13,2,27,13,12,29,2,27,26,27,20,16,15,1,1,21,25,4,17,0,9,8,6,11,5,2,2,2,2,8,2,8,2,13,2,613.txt
0,0,13,0,0,0,24,0,0,7,0,6,5,29,0,26,30,5,17,24,22,30,23,20,22,26,23,6,17,8,21,2,18,0,21,18,6,19,24,9,18,0,13,0,0,0,0,0,0,1,0,9,1,1,25,29,3,28,0,5,1,1,1,0,27,615.txt
0,0,13,0,0,0,24,0,0,7,0,6,5,29,0,26,30,5,17,24,22,30,23,20,22,26,23,6,17,8,21,2,18,0,21,18,6,19,24,9,18,0,13,0,0,0,0,0,0,1,0,9,1,1,25,29,3,28,0,5,1,1,1,7,27,618.txt
0,0,13,0,0,0,24,0,0,7,18,6,5,29,0,26,30,5,17,24,22,30,23,20,22,26,23,6,17,8,21,2,18,0,21,3,6,19,24,9,18,0,18,0,0,0,0,0,0,1,0,13,1,1,25,29,3,28,0,5,1,1,1,0,27,621.txt
16,0,13,0,0,0,1,1,1,7,0,1,1,1,0,26,1,21,17,1,22,30,23,20,22,16,23,6,2,8,1,1,1,1,21,18,6,10,24,9,18,0,13,0,0,0,0,0,0,1,0,9,1,1,25,29,3,28,0,5,1,1,1,0,27,623.txt
19,0,30,15,22,3,9,11,28,22,30,27,27,18,29,25,24,27,5,29,29,27,21,2,20,2,9,23,14,23,8,11,9,8,7,22,21,16,22,13,21,29,22,3,3,1,24,26,25,13,3,4,19,22,4,19,7,10,13,19,4,17,4,13,5,624.txt
0,0,13,0,0,0,24,0,0,7,0,6,5,29,0,26,30,5,17,24,22,30,23,20,22,26,23,6,17,8,21,2,18,0,21,18,6,19,24,9,18,0,13,0,0,0,0,0,0,1,0,9,1,1,25,29,3,28,0,5,1,1,1,0,27,627.txt
0,0,13,0,0,0,24,0,0,7,0,6,5,29,0,26,30,5,17,24,22,30,23,20,22,26,23,6,17,8,21,2,18,0,21,18,6,19,24,9,18,0,13,0,0,0,0,0,0,1,0,9,1,1,25,29,3,28,0,5,1,1,1,0,27,628.txt
0,0,13,0,0,0,24,0,0,7,0,6,5,29,0,26,30,5,17,24,22,30,23,20,22,26,23,6,17,8,21,2,18,0,21,18,6,19,24,9,18,0,13,0,0,0,0,0,0,1,0,9,1,1,25,29,3,28,0,5,1,1,1,0,27,629.txt
16,0,2,23,22,1,1,1,1,16,22,1,1,1,1,20,1,2,22,1,3,3,1,1,1,1,2,6,2,8,1,1,1,1,21,20,15,12,24,22,18,12,13,6,8,20,10,8,12,9,26,9,18,21,20,29,3,28,0,5,4,24,20,13,21,631.txt
0,3,13,30,0,25,24,0,0,30,12,11,11,12,13,23,8,11,10,28,4,23,26,26,26,26,4,18,29,14,5,16,5,5,28,25,25,26,12,18,30,7,3,14,30,19,20,12,20,22,6,5,27,4,6,11,25,29,10,3,16,13,30,30,7,633.txt
0,0,13,0,0,0,24,0,0,7,0,6,5,29,0,26,30,5,17,24,22,30,23,20,22,26,23,6,17,8,21,2,18,0,21,18,6,19,24,9,18,0,13,0,0,0,0,0,0,1,0,9,1,1,25,29,3,28,0,5,1,1,1,2,27,635.txt
0,0,13,0,0,0,24,0,0,7,24,6,5,29,4,26,30,5,28,4,22,30,26,26,26,26,4,6,23,8,13,2,27,13,21,18,14,19,24,9,18,0,13,0,0,2,2,2,2,7,0,9,4,3,30,29,3,28,0,5,4,17,4,13,5,637.txt
0,0,13,0,0,0,24,0,0,7,0,6,5,29,0,26,30,5,17,24,22,30,23,20,22,26,23,6,17,8,21,8,18,0,21,19,6,19,24,2,18,13,13,7,0,0,0,0,0,8,0,9,10,11,26,29,3,28,0,5,4,28,23,7,13,642.txt
0,0,13,0,0,0,24,0,0,7,17,6,5,29,0,26,30,5,17,24,22,30,23,20,22,26,23,6,17,8,21,2,18,0,21,6,6,18,24,6,18,0,18,0,0,0,0,0,0,0,0,13,4,3,30,29,3,28,0,5,4,5,4,0,5,645.txt
21,20,29,15,14,1,3,4,28,5,26,27,27,6,29,17,16,23,21,29,1,8,21,28,3,5,7,11,26,10,27,17,12,9,10,13,21,16,19,14,14,15,16,8,4,26,30,6,12,11,4,2,24,25,24,19,24,9,12,18,30,3,18,30,16,647.txt
0,20,13,27,0,0,24,0,0,7,0,6,5,29,0,26,30,5,17,24,22,30,23,20,22,26,23,6,17,8,21,15,18,0,21,18,6,19,24,9,18,0,13,0,2,0,0,0,0,1,2,9,1,1,25,29,3,28,0,5,1,1,1,0,27,650.txt
0,0,13,0,0,30,24,0,0,30,24,11,11,19,4,27,13,16,28,4,18,20,26,26,26,26,4,9,23,29,13,2,27,13,1,29,2,27,26,27,8,14,9,1,1,11,11,23,10,0,8,7,6,11,5,2,2,2,2,7,2,3,2,13,2,652.txt
0,0,13,0,0,0,24,0,0,7,24,6,5,29,4,26,30,5,14,4,22,30,26,26,26,26,4,6,23,8,13,2,27,13,21,18,14,19,24,9,18,0,13,0,0,2,2,2,2,13,0,9,6,8,5,29,3,28,0,4,4,18,4,1,5,654.txt
0,0,13,0,0,30,24,0,0,7,24,6,5,29,4,27,30,5,28,4,5,20,26,26,26,26,4,19,23,29,13,2,27,13,2,18,18,19,24,9,9,9,10,1,1,11,11,11,10,15,7,6,4,3,30,12,7,19,1,3,4,3,5,13,9,657.txt
0,0,13,0,0,0,24,0,0,7,0,6,5,29,0,26,30,5,17,24,22,30,23,20,22,26,23,6,17,8,21,2,18,0,21,18,6,19,24,9,18,0,13,0,0,0,0,0,0,1,0,9,1,1,25,29,3,28,0,5,1,1,1,0,27,658.txt
0,0,13,0,0,0,24,0,0,7,24,11,11,22,4,26,13,20,28,4,22,30,26,26,26,26,4,6,15,8,5,2,5,5,21,18,25,26,0,9,18,0,13,0,0,2,2,2,2,13,0,9,0,0,0,29,3,28,0,1,4,4,4,5,26,662.txt
0,0,13,0,0,0,24,0,0,7,0,6,5,29,0,26,30,5,17,24,22,30,23,20,22,26,23,6,17,8,21,2,18,0,21,18,6,19,24,9,18,0,13,0,4,0,0,0,0,0,4,9,10,11,10,29,3,28,0,5,4,3,7,0,5,663.txt
0,0,13,0,0,0,24,0,0,7,0,6,5,29,0,26,30,5,17,24,22,30,23,20,22,26,23,6,17,8,21,2,18,0,21,18,6,19,24,9,18,0,13,0,0,0,0,0,0,1,0,9,1,1,25,29,3,28,0,5,1,1,1,0,27,665.txt
0,0,13,0,0,0,24,0,0,7,0,6,5,29,0,26,30,5,17,24,22,30,23,20,22,26,23,6,17,8,21,2,18,0,21,18,6,19,24,9,18,0,13,0,0,0,0,0,0,1,0,9,1,1,25,29,3,28,0,5,1,1,1,0,27,669.txt
0,0,13,0,0,0,24,0,0,7,0,6,5,29,0,26,30,5,17,24,22,30,23,20,22,26,23,6,17,8,21,2,18,0,21,18,6,19,24,9,18,0,13,0,0,0,0,0,0,0,0,9,4,3,30,29,3,28,0,5,2,3,2,7,2,671.txt
0,1,11,0,24,30,24,15,13,14,0,11,11,12,0,21,8,11,17,24,5,20,23,20,22,30,23,9,17,29,21,2,18,0,1,18,2,27,26,9,8,14,9,9,9,11,11,23,10,15,7,6,4,3,30,2,2,2,2,3,2,3,2,7,2,673.txt
0,0,13,0,0,0,24,0,0,7,0,6,5,29,0,26,30,5,17,24,22,30,23,20,22,26,23,3,17,3,21,2,18,0,16,18,6,19,24,9,2,2,6,2,0,0,0,0,0,0,0,2,4,3,30,2,2,2,2,3,2,0,2,0,2,675.txt
5,0,4,3,16,5,30,30,30,15,29,13,13,6,2,7,12,27,16,29,1,11,21,2,8,2,9,23,7,17,27,17,12,9,2,14,11,15,23,13,9,9,10,1,1,12,12,20,13,13,19,20,19,22,4,10,7,14,1,28,4,6,0,13,5,678.txt
0,0,13,0,0,0,24,0,0,7,0,6,5,29,0,26,30,5,17,24,22,30,23,20,22,26,23,6,17,8,21,0,18,0,21,18,6,19,24,9,18,0,13,0,0,0,0,0,0,1,0,9,1,1,25,29,3,28,0,5,1,1,1,0,27,680.txt
0,0,13,0,0,0,24,0,0,7,0,6,5,29,0,26,30,5,17,24,22,30,23,20,22,26,23,6,17,8,21,2,18,0,21,18,6,19,24,9,18,0,13,0,0,0,0,0,0,1,0,9,1,1,25,29,3,28,0,5,1,1,1,0,27,683.txt
0,0,13,0,0,0,24,0,0,7,0,6,5,29,0,26,30,5,17,24,22,30,23,20,22,26,23,6,17,8,21,2,18,0,21,18,6,19,24,9,18,0,13,0,0,0,0,0,0,1,0,9,1,1,25,29,3,28,0,5,1,1,1,0,27,685.txt
0,0,13,0,0,0,24,0,0,7,0,6,5,29,0,26,30,5,17,24,22,30,23,20,22,26,23,6,17,8,21,2,18,0,21,18,6,19,24,9,18,0,13,0,0,0,0,0,0,1,0,9,1,1,25,29,3,28,0,5,1,1,1,0,27,687.txt
0,0,13,0,0,0,24,0,0,7,0,6,5,29,0,26,30,5,17,24,22,30,23,20,22,14,23,6,17,8,21,2,18,0,21,18,6,19,24,9,18,0,13,0,0,0,0,0,0,1,0,9,1,1,25,29,3,28,0,5,1,1,1,0,27,689.txt
0,0,13,0,0,0,24,0,0,7,24,11,11,12,6,26,8,11,28,5,22,30,6,6,6,26,12,3,5,3,16,2,17,18,16,18,2,27,26,9,2,2,6,2,0,2,2,2,2,9,0,2,4,3,30,2,2,2,2,3,2,3,2,13,2,691.txt
5,0,29,15,22,5,6,13,15,15,21,30,14,11,30,19,26,4,16,15,12,11,30,16,14,2,14,27,8,23,11,26,29,11,7,15,15,12,17,15,1,29,22,10,14,1,24,14,21,0,3,4,12,26,12,12,7,12,1,21,4,26,27,1,7,695.txt
0,0,13,0,0,0,24,0,0,7,0,6,5,29,0,26,30,5,17,24,22,30,23,20,22,14,23,6,17,8,21,2,18,0,21,18,6,19,24,9,18,0,13,0,0,0,0,0,0,1,0,9,1,1,25,29,3,28,0,5,1,1,1,0,27,696.txt
16,0,13,23,0,0,30,30,30,7,0,13,13,2,2,26,12,4,17,29,22,30,11,17,3,5,7,3,21,3,27,11,9,8,16,18,6,10,24,9,2,2,6,2,0,0,0,0,0,0,0,2,2,2,2,2,2,2,2,29,2,0,2,0,2,700.txt
0,0,13,0,0,30,24,0,0,7,24,11,11,12,3,27,8,11,15,3,5,20,6,6,6,14,12,1,15,29,16,2,17,18,2,18,2,27,26,9,9,9,10,1,1,11,11,1,10,3,7,6,4,3,30,2,2,2,2,3,2,3,2,3,2,703.txt
16,0,2,23,16,1,30,30,30,16,22,13,13,2,17,20,12,21,22,15,16,19,30,15,24,1,2,6,2,8,12,29,30,11,21,20,18,12,17,22,18,0,13,0,2,6,6,16,9,9,2,9,12,26,12,29,3,28,0,21,9,18,5,17,25,705.txt
0,0,13,0,0,0,24,0,0,7,0,6,5,29,0,26,30,5,17,24,22,30,23,20,22,26,23,6,17,8,21,2,18,0,21,18,6,19,24,9,18,0,13,0,0,0,0,0,0,0,0,9,4,3,30,29,3,28,0,5,2,3,2,0,2,706.txt
0,0,13,0,0,0,24,0,0,7,24,6,5,29,4,26,30,5,28,4,22,30,26,26,26,26,4,3,23,3,13,2,27,13,16,18,14,19,24,9,5,5,6,2,2,6,6,2,9,13,2,11,4,3,7,12,7,13,26,3,4,8,4,13,30,709.txt
0,0,13,0,0,0,24,0,0,7,0,6,5,29,0,26,30,5,17,24,22,30,23,20,22,26,23,6,17,8,21,2,18,0,21,18,6,19,24,9,18,0,13,0,2,0,0,0,0,0,2,9,9,11,9,29,3,28,0,8,4,3,7,0,10,711.txt
0,0,13,0,0,0,24,0,0,7,0,6,5,29,0,26,30,5,17,24,22,30,23,20,22,26,23,6,17,8,21,2,18,0,21,18,6,19,8,9,18,0,13,0,8,0,0,0,0,9,26,9,22,11,22,29,3,28,0,8,19,3,27,7,9,712.txt
0,0,13,0,0,30,15,0,0,30,14,11,11,12,4,27,8,11,28,4,5,23,26,26,26,26,4,18,23,29,15,8,3,19,2,29,4,17,23,28,4,4,4,15,18,12,12,12,13,13,7,6,4,3,30,12,7,25,1,3,4,8,8,13,7,713.txt
0,0,13,0,0,0,24,0,0,7,24,6,5,29,4,26,30,5,28,4,22,30,26,26,26,26,4,6,25,8,13,2,27,13,21,15,15,19,24,3,18,0,13,0,0,2,2,2,2,13,0,9,0,0,0,29,3,28,0,1,11,17,4,13,7,716.txt
0,0,13,0,0,30,24,0,0,30,24,11,11,12,4,27,8,11,14,4,5,12,27,27,27,26,4,19,23,29,13,2,27,13,7,29,4,11,23,27,8,14,9,1,1,12,12,11,13,12,6,5,4,3,30,12,7,13,1,3,4,8,4,1,5,722.txt
0,0,13,0,0,0,24,0,0,7,0,6,5,29,0,26,30,5,17,24,22,30,23,20,22,26,23,6,17,8,21,0,18,0,21,18,6,19,24,9,18,0,13,0,0,0,0,0,0,0,0,9,6,8,5,29,3,28,0,7,3,3,7,0,5,724.txt
0,0,13,0,0,0,24,0,0,7,24,11,11,22,4,26,13,20,28,4,22,30,26,26,26,26,4,6,23,8,13,2,27,13,21,19,25,26,0,9,18,0,13,0,0,2,2,2,2,29,0,9,0,0,0,29,3,28,0,1,7,8,23,10,13,727.txt
0,0,13,0,0,30,24,0,0,30,0,11,11,12,0,27,8,11,17,24,5,20,23,20,22,26,23,7,17,29,21,0,18,0,2,29,2,27,26,27,9,9,10,1,1,11,11,4,10,0,7,6,4,3,30,2,2,2,2,3,2,3,2,0,2,728.txt
0,0,13,0,0,0,24,0,0,7,0,6,5,29,0,26,30,5,17,24,22,30,23,20,22,26,23,6,17,8,21,2,18,0,21,18,6,19,24,9,18,0,13,0,0,0,0,0,0,1,0,9,1,1,25,29,3,28,0,5,1,1,1,0,27,732.txt
0,0,13,0,0,0,24,0,0,7,0,6,5,29,0,26,30,5,17,24,22,30,23,20,22,26,23,6,17,8,21,6,18,0,21,18,6,19,24,2,18,0,13,0,4,0,0,0,0,1,4,9,1,1,25,29,3,28,0,5,1,1,1,0,27,734.txt
5,0,13,0,0,30,30,30,30,30,24,13,13,18,4,27,12,4,28,15,5,15,6,6,6,16,18,24,9,29,18,26,29,11,2,2,21,11,23,30,9,9,10,5,6,11,11,4,10,0,7,6,12,14,12,25,18,15,24,3,8,6,5,18,12,735.txt
0,0,13,0,0,0,24,0,0,7,0,6,5,29,0,26,30,5,17,24,22,30,23,20,22,26,23,6,17,8,21,2,18,0,21,18,6,19,24,9,18,0,13,0,0,0,0,0,0,0,0,9,4,3,30,29,3,28,0,3,4,0,4,0,5,737.txt
0,0,13,0,0,0,24,0,0,7,0,6,5,29,0,26,30,5,17,24,22,30,23,20,22,26,23,6,17,8,21,2,18,0,21,18,6,19,24,9,18,0,13,0,0,0,0,0,0,0,0,9,4,3,30,29,3,28,0,5,4,4,4,0,7,738.txt
0,0,13,0,0,0,24,0,0,7,0,6,5,29,0,26,30,5,17,24,22,30,23,20,22,26,23,6,17,8,21,2,18,0,21,18,6,19,24,9,18,0,13,0,2,0,0,0,0,1,2,9,1,1,25,29,3,28,0,5,1,1,1,0,27,741.txt
0,0,13,0,0,0,24,0,0,7,0,6,5,29,0,26,30,5,17,24,22,30,23,20,22,26,23,6,17,8,21,8,18,0,21,19,6,19,24,2,18,0,13,0,0,0,0,0,0,0,0,9,6,11,5,29,3,28,0,5,4,3,4,0,7,743.txt
0,0,13,0,0,0,24,0,0,7,0,6,5,29,0,26,30,5,17,24,22,30,23,20,22,26,23,6,17,8,21,2,18,0,21,18,6,19,24,9,18,0,13,0,0,0,0,0,0,0,0,9,4,3,30,29,3,28,0,5,4,5,4,0,5,747.txt
0,0,13,0,0,30,15,0,0,30,24,11,11,12,4,27,8,11,28,4,5,12,27,27,27,26,4,19,5,29,22,8,22,27,7,29,4,17,23,28,24,14,27,15,10,12,12,11,13,13,7,6,4,3,30,12,7,12,1,3,4,8,4,13,12,748.txt
0,0,13,0,0,0,24,0,0,7,24,6,5,29,4,26,30,5,28,4,22,30,26,26,26,26,4,6,23,8,13,2,27,13,21,18,15,19,24,9,18,0,13,0,0,2,2,2,2,0,0,9,4,3,30,29,3,28,0,3,4,8,4,13,5,751.txt
21,0,29,15,23,10,6,8,5,22,7,5,7,11,8,6,6,9,11,29,15,26,21,9,24,12,25,6,20,8,27,11,9,12,16,22,18,10,8,26,2,2,6,8,0,2,2,8,2,29,0,3,13,15,13,20,13,29,12,30,24,18,20,8,15,755.txt
0,0,13,0,0,0,24,0,0,7,24,11,11,12,6,26,8,11,28,5,22,30,26,26,26,26,4,3,5,3,16,2,17,18,16,18,2,27,26,9,5,5,6,4,2,6,6,2,9,0,2,2,7,4,30,2,2,2,2,3,2,0,2,17,2,756.txt
0,0,13,0,0,0,24,0,0,7,0,6,5,29,0,26,30,5,17,24,22,30,23,20,22,26,23,6,17,8,21,2,18,0,21,18,6,19,24,9,18,0,13,0,0,0,0,0,0,1,0,9,1,1,25,29,3,28,0,5,1,1,1,0,27,760.txt
0,0,13,0,0,0,24,0,0,7,0,6,5,29,0,26,30,5,17,24,22,30,23,20,22,26,23,6,17,8,21,2,18,0,21,18,6,19,24,9,18,0,13,0,0,0,0,0,0,1,0,9,1,1,25,29,3,28,0,5,1,1,1,7,27,765.txt
0,0,13,0,0,0,24,0,0,7,3,6,5,29,15,26,30,5,3,20,22,30,3,29,29,26,10,6,15,8,19,2,19,24,21,18,14,19,17,9,18,0,13,0,0,2,2,2,2,12,0,9,6,11,5,29,3,28,0,5,4,30,7,1,10,766.txt
0,0,13,0,0,0,24,0,0,7,0,6,5,29,0,26,30,5,17,24,22,30,23,20,22,26,23,6,17,8,21,2,18,0,21,18,6,19,24,9,18,0,13,0,0,0,0,0,0,0,0,9,4,3,30,29,3,28,0,5,4,5,4,0,7,768.txt
0,0,13,0,0,0,24,0,0,30,24,11,11,12,4,9,8,11,28,4,9,6,26,26,26,26,4,3,15,3,6,2,6,6,16,29,21,11,23,27,2,2,6,2,2,6,6,2,9,12,2,11,4,3,30,12,7,13,13,3,4,8,4,13,7,771.txt
0,0,13,0,0,0,24,0,0,7,0,6,5,29,0,26,30,5,17,24,22,30,23,20,22,26,23,6,17,8,21,2,18,0,21,18,6,19,24,9,18,0,13,0,0,0,0,0,0,0,0,9,4,3,30,29,3,28,0,5,4,5,4,0,7,772.txt
0,0,13,0,0,0,24,0,0,7,0,6,5,29,0,26,30,5,17,24,22,30,23,20,22,26,23,6,17,8,21,2,18,0,21,18,6,19,24,9,18,0,13,0,0,0,0,0,0,1,0,9,1,1,25,29,3,28,0,5,1,1,1,0,27,773.txt
0,0,13,0,0,0,24,0,0,7,0,6,5,29,0,26,30,5,17,24,22,30,23,20,22,26,23,6,17,8,21,2,18,0,21,18,6,19,24,9,18,0,13,0,4,0,0,0,0,1,4,9,1,1,25,29,3,28,0,5,1,1,1,0,27,775.txt
0,0,13,0,0,0,25,0,0,30,14,11,11,22,3,26,13,20,28,3,6,24,5,5,19,27,30,7,6,29,20,8,19,24,2,29,21,16,23,28,4,4,4,1,1,12,12,4,13,7,8,7,9,7,9,11,29,1,11,10,5,30,13,17,11,777.txt
0,0,13,0,0,0,24,0,0,30,24,11,11,12,4,26,8,11,28,4,22,30,26,26,26,26,4,3,23,3,13,2,27,13,16,14,11,11,23,25,2,2,6,2,4,26,30,2,9,13,4,3,25,5,21,23,7,13,1,3,4,11,18,13,5,779.txt
0,0,13,0,0,0,24,0,0,7,0,6,5,29,0,26,30,5,17,24,22,30,23,20,22,26,23,6,17,8,21,2,18,0,21,18,6,19,24,9,18,0,13,0,0,0,0,0,0,1,0,9,1,1,25,29,3,28,0,5,1,1,1,0,27,781.txt
0,0,13,0,0,0,24,0,0,7,0,6,5,29,0,26,30,5,17,24,22,30,23,20,22,26,23,6,17,8,21,2,18,0,21,18,6,19,24,9,18,0,13,0,0,0,0,0,0,0,0,9,4,3,30,29,3,28,0,5,4,3,4,0,5,785.txt
0,0,13,0,0,0,24,0,0,7,0,6,5,29,0,26,30,5,17,24,22,30,23,20,22,26,23,6,17,8,21,2,18,0,21,18,6,19,24,9,18,0,13,0,0,0,0,0,0,1,0,9,1,1,25,29,3,28,0,5,1,1,1,0,27,787.txt
0,0,13,23,0,0,24,0,0,7,0,6,5,29,1,26,30,5,17,24,22,30,1,1,1,1,2,6,17,8,21,2,18,0,21,18,6,19,24,9,18,0,13,0,2,0,0,0,0,0,2,9,2,2,2,29,3,28,0,5,4,0,4,0,7,790.txt
0,0,13,0,0,0,24,0,0,7,3,6,5,29,22,26,30,5,3,19,22,30,26,26,26,26,4,3,5,3,16,2,17,18,16,18,18,19,24,9,2,2,6,2,2,6,6,2,9,0,2,2,4,3,30,2,2,2,2,13,2,0,2,1,2,792.txt
0,0,13,0,0,0,24,0,0,7,24,11,11,12,4,26,8,11,28,4,22,30,26,26,26,26,4,3,23,3,13,2,27,13,16,18,2,27,26,9,2,2,6,2,0,2,2,2,2,0,0,2,4,3,30,2,2,2,2,3,2,0,2,13,2,796.txt
0,0,13,0,0,0,24,0,0,7,0,6,5,29,0,26,30,5,17,24,22,30,23,20,22,26,23,6,17,8,21,2,18,0,21,18,6,19,24,9,18,0,13,0,0,0,0,0,0,0,0,9,4,3,30,29,3,28,0,3,4,3,4,0,5,800.txt
0,0,13,0,0,0,24,0,0,7,18,6,5,29,0,26,30,5,17,24,22,30,23,20,22,26,23,6,17,8,21,2,18,0,21,18,6,19,24,9,18,0,18,0,0,0,0,0,0,0,0,13,4,3,30,29,3,28,0,5,4,0,27,0,7,802.txt
5,24,13,27,0,0,30,30,30,30,12,13,13,6,6,26,12,4,10,7,22,30,6,6,6,26,22,26,9,12,9,17,12,9,16,10,2,27,26,13,5,5,6,8,4,26,30,10,22,13,4,3,12,14,12,2,2,2,2,13,2,3,2,30,2,806.txt
0,0,13,0,0,0,24,0,0,7,0,6,5,29,0,26,30,5,17,24,22,30,23,20,22,26,23,6,17,8,21,2,18,0,21,18,6,19,24,9,18,0,13,0,0,0,0,0,0,1,0,9,1,1,25,29,3,28,0,5,1,1,1,0,27,807.txt
0,0,13,0,0,0,24,0,0,7,0,6,5,29,0,26,30,5,17,24,22,30,23,20,22,26,23,6,17,8,21,2,18,0,21,18,6,19,24,9,18,0,13,0,0,0,0,0,0,1,0,9,1,1,25,29,3,28,0,5,1,1,1,0,27,810.txt
0,0,13,0,0,0,24,0,0,7,0,6,5,29,0,26,30,5,17,24,22,30,23,20,22,26,23,6,17,8,21,2,18,0,21,18,6,19,24,9,18,0,13,0,0,0,0,0,0,1,0,9,1,1,25,29,3,28,0,5,1,1,1,0,27,813.txt
16,0,29,23,23,1,6,5,15,15,6,16,17,9,26,8,16,22,16,15,21,10,30,15,3,9,9,6,20,8,11,29,30,15,21,20,9,10,17,22,18,0,13,0,2,0,0,0,0,9,2,9,29,21,19,29,3,28,0,16,3,6,18,7,15,816.txt
0,0,13,0,0,0,24,0,0,7,24,6,5,29,4,26,30,5,28,4,22,30,26,26,26,26,4,6,23,8,13,2,27,13,21,18,15,19,24,9,18,0,13,0,0,2,2,2,2,1,0,9,1,1,25,29,3,28,0,3,1,1,1,13,27,817.txt
0,0,13,0,0,0,24,0,0,7,0,6,5,29,0,26,30,5,17,24,22,30,23,20,22,26,23,6,17,8,21,2,18,0,21,18,6,19,24,9,18,0,13,0,0,0,0,0,0,9,0,9,6,11,5,29,3,28,0,8,4,3,27,0,9,818.txt
0,0,0,0,0,0,24,0,0,9,3,6,5,29,4,0,4,5,3,4,0,0,26,26,26,23,4,0,5,0,5,2,5,5,0,6,15,18,27,6,0,0,0,0,0,2,2,2,2,1,0,0,1,1,25,22,19,27,0,1,1,1,1,1,27,821.txt
0,0,13,0,0,28,24,0,0,30,24,0,0,12,4,27,8,11,28,4,5,12,26,26,26,26,4,19,23,29,15,8,3,19,1,29,4,17,23,27,8,14,9,1,1,11,11,11,10,0,7,6,4,3,30,6,7,6,6,3,4,8,4,13,5,824.txt
0,0,13,0,0,0,24,0,0,7,24,6,5,29,4,26,30,5,28,4,22,30,27,27,27,26,4,6,23,8,13,2,27,13,21,18,18,19,24,9,18,0,13,0,0,2,2,2,2,3,0,9,6,11,5,29,3,28,0,5,27,3,27,13,9,827.txt
16,0,29,3,23,1,30,30,30,15,29,13,13,2,2,7,12,7,16,15,1,8,2,8,3,5,7,3,21,3,10,17,12,9,16,18,2,27,26,9,2,2,6,2,0,0,0,0,0,9,0,2,2,2,2,2,2,2,2,29,2,3,2,0,2,831.txt
0,0,13,0,0,0,24,0,0,7,0,6,5,29,0,26,30,5,17,24,22,30,23,20,22,26,23,6,17,8,21,2,18,0,21,18,6,19,24,9,18,0,13,0,0,0,0,0,0,1,0,9,1,1,25,29,3,28,0,5,1,1,1,0,27,832.txt
0,0,13,0,0,0,24,0,0,7,0,6,5,29,0,26,30,5,17,24,22,30,23,20,22,14,23,6,17,8,21,0,18,0,21,28,6,19,24,20,18,0,13,0,0,0,0,0,0,7,0,9,6,8,5,29,3,28,0,8,4,5,4,0,5,834.txt
0,0,13,0,0,30,24,0,0,7,0,6,5,29,0,27,30,5,17,24,5,20,23,20,22,26,23,9,17,29,21,2,18,0,19,18,6,19,24,9,30,14,3,1,1,11,11,23,10,0,7,6,4,3,6,29,3,28,22,3,3,0,27,2,10,836.txt
0,0,13,0,0,0,24,0,0,7,0,6,5,29,0,26,30,5,17,24,22,30,23,20,22,26,23,6,17,8,21,2,18,0,21,18,6,19,24,9,18,0,13,0,0,0,0,0,0,13,0,9,4,3,30,29,3,28,0,5,4,17,5,0,5,839.txt
16,0,13,23,0,0,1,1,1,7,0,1,1,1,1,26,1,21,17,1,22,30,1,1,1,1,2,6,2,8,1,1,1,1,21,18,6,8,24,9,18,0,13,0,0,0,0,0,0,0,0,9,2,2,2,29,3,28,0,5,4,5,27,0,10,842.txt
0,0,13,0,0,0,24,0,0,7,0,6,5,29,0,26,30,5,17,24,22,30,23,20,22,26,23,6,17,8,21,2,18,0,21,18,6,19,24,9,18,0,13,0,0,0,0,0,0,1,0,9,1,1,25,29,3,28,0,5,1,1,1,0,27,847.txt
0,0,13,0,0,0,24,0,0,7,17,6,5,29,0,26,30,5,17,24,22,30,23,20,22,26,23,6,17,8,21,2,18,0,21,18,6,19,24,9,18,0,18,0,0,0,0,0,0,1,0,13,1,1,25,29,3,28,0,5,1,1,1,0,27,851.txt
0,0,13,0,0,30,24,0,0,30,24,11,11,12,4,27,8,11,28,4,5,23,27,27,27,26,4,9,5,29,16,2,17,18,2,29,4,11,23,27,9,9,10,14,18,11,11,12,10,15,7,6,4,3,30,19,7,13,1,3,4,8,8,13,25,852.txt
0,0,13,0,0,0,24,0,0,7,0,6,5,29,0,26,30,5,17,24,22,30,23,20,22,26,23,6,17,8,21,2,18,0,21,18,6,19,24,9,18,0,13,0,0,0,0,0,0,13,0,9,12,26,12,29,3,28,0,3,4,3,5,0,5,855.txt
0,0,13,0,0,0,24,0,0,30,3,11,11,19,3,26,13,30,20,3,22,30,5,5,12,14,18,3,15,3,16,8,17,18,16,1,2,27,26,27,5,5,6,20,2,6,6,10,6,0,2,2,9,8,9,2,2,2,2,10,2,30,2,3,2,857.txt
0,0,13,25,0,0,24,0,0,7,0,6,5,29,0,26,30,5,17,24,22,30,23,20,22,14,23,6,17,8,21,2,18,0,21,18,6,19,29,9,18,0,13,0,0,0,0,0,0,1,0,26,1,1,25,4,4,4,0,5,1,1,1,0,27,859.txt
0,0,13,0,0,0,24,0,0,7,0,6,5,29,0,26,30,5,17,24,22,30,23,20,22,26,23,6,17,8,21,2,18,0,21,18,6,19,24,9,18,0,13,0,0,0,0,0,0,1,0,9,1,1,25,29,3,28,0,5,1,1,1,0,27,861.txt
0,20,13,27,0,0,24,0,0,7,0,6,5,29,0,26,30,5,17,24,22,30,23,20,22,26,23,6,17,8,21,15,18,0,21,19,6,19,24,9,18,0,13,0,2,0,0,0,0,1,2,9,1,1,25,29,3,28,0,8,1,1,1,0,27,864.txt
0,0,13,0,0,0,25,0,0,30,24,11,11,12,4,26,8,11,28,4,22,30,26,26,26,26,4,3,23,3,15,8,3,14,16,29,4,17,23,28,2,2,6,2,0,2,2,2,2,13,0,11,4,3,30,12,7,13,1,3,4,8,4,13,7,866.txt
0,0,13,0,0,30,24,0,0,30,24,11,11,12,4,27,8,11,28,4,5,23,26,26,26,26,4,17,23,29,13,2,27,13,1,29,21,11,21,27,8,3,9,24,13,3,21,12,3,13,7,6,4,3,30,19,7,13,1,3,4,8,23,13,5,868.txt
0,0,13,0,0,0,24,0,0,7,24,6,5,29,6,26,30,5,28,5,22,30,5,5,17,26,12,6,5,8,5,2,5,5,21,18,15,19,24,9,18,0,13,0,0,2,2,2,2,12,0,9,0,0,0,29,3,28,0,1,4,2,7,13,5,870.txt
0,0,13,0,0,0,24,0,0,7,0,6,5,29,0,26,30,5,17,24,22,30,23,20,22,26,23,6,17,8,21,2,18,0,21,18,6,19,24,9,18,0,13,0,0,0,0,0,0,0,0,9,4,3,30,29,3,28,0,5,4,0,4,0,5,872.txt
0,0,13,0,0,30,24,0,0,7,3,6,5,29,4,27,30,5,3,4,5,12,26,26,26,26,4,19,23,29,13,2,27,13,7,18,14,19,24,9,8,14,9,1,1,11,11,11,10,0,6,5,4,3,30,6,7,6,6,3,4,4,4,1,30,874.txt
0,0,13,0,0,0,24,0,0,7,0,6,5,29,0,26,30,5,17,24,22,30,23,20,22,26,23,6,17,8,21,2,18,0,21,18,6,19,24,9,18,0,13,0,0,0,0,0,0,1,0,9,1,1,25,29,3,28,0,5,1,1,1,0,27,879.txt
0,0,0,0,0,0,24,0,0,9,0,6,5,29,0,0,4,5,17,0,0,0,0,20,0,0,23,0,17,0,0,2,18,0,0,0,6,1,24,0,0,0,0,0,0,0,0,0,0,1,0,0,1,1,25,0,0,0,0,5,1,1,1,0,27,882.txt
0,0,13,0,0,0,24,0,0,7,24,11,11,12,4,26,8,11,14,4,22,30,26,26,26,26,4,3,23,3,13,2,27,13,16,29,23,11,22,18,5,5,6,2,2,6,6,2,9,13,2,11,4,3,3,12,7,10,1,3,4,8,5,1,7,884.txt
0,0,13,0,0,0,24,0,0,7,0,6,5,29,0,26,30,5,17,24,22,30,23,20,22,26,23,6,17,8,21,2,18,0,21,18,6,19,24,9,18,0,13,0,0,0,0,0,0,1,0,9,1,1,25,29,3,28,0,5,1,1,1,0,27,885.txt
0,0,13,0,0,0,24,0,0,7,0,6,5,29,0,26,30,5,17,24,22,30,23,20,22,26,23,6,17,8,21,2,18,0,21,18,6,19,24,9,18,0,13,0,0,0,0,0,0,1,0,9,1,1,25,29,3,28,0,5,1,1,1,0,27,886.txt
0,0,13,0,0,0,24,0,0,7,0,6,5,29,0,26,30,5,17,24,22,30,23,20,22,26,23,3,17,3,21,2,18,0,16,18,6,19,24,9,2,2,6,2,0,0,0,0,0,0,0,2,4,3,30,5,7,5,1,3,4,17,7,0,10,889.txt
0,0,13,0,0,0,24,0,0,7,0,6,5,29,0,26,30,5,17,24,22,30,23,20,22,26,23,6,17,8,21,2,18,0,21,18,6,19,24,9,18,0,13,0,4,0,0,0,0,1,4,9,1,1,25,29,3,28,0,3,1,1,1,0,27,891.txt
0,0,13,0,0,0,24,0,0,7,0,6,5,29,0,26,30,5,17,24,22,30,23,20,22,26,23,6,17,8,21,2,18,0,16,18,6,19,24,9,2,2,5,2,0,0,0,0,0,0,0,2,4,3,30,2,2,2,2,3,2,0,2,0,2,893.txt
0,0,13,0,0,0,24,0,0,7,0,11,11,12,0,26,30,5,17,24,22,30,23,20,22,14,23,3,17,3,21,2,18,0,16,18,2,27,26,9,2,2,6,2,0,0,0,0,0,0,0,2,4,3,30,2,2,2,2,3,2,3,2,0,2,896.txt
0,0,13,3,0,0,24,0,0,7,24,7,19,8,2,26,7,10,15,4,22,30,2,16,3,5,7,3,23,3,13,2,27,13,16,18,2,27,26,9,2,2,6,2,0,2,2,2,2,0,0,2,2,2,2,2,2,2,2,29,2,8,2,13,2,900.txt
0,0,13,0,0,0,24,0,0,7,0,6,5,29,0,26,30,5,17,24,22,30,23,20,22,16,23,6,17,8,21,2,18,0,21,18,6,19,24,9,18,0,13,0,0,0,0,0,0,0,0,9,2,2,2,29,3,28,0,5,4,3,23,0,10,902.txt
21,0,30,15,18,10,6,5,5,26,7,5,7,2,8,6,6,9,13,29,15,25,21,9,24,1,16,25,19,19,27,11,9,26,7,22,15,10,24,15,17,28,14,11,17,17,29,17,30,14,3,4,13,15,13,29,3,28,0,30,7,26,20,15,19,905.txt
0,0,13,0,0,0,24,0,0,7,0,6,5,29,0,26,30,5,17,24,22,30,23,20,22,26,23,6,17,8,21,2,18,0,21,18,6,19,24,9,18,0,13,0,0,0,0,0,0,1,0,9,1,1,25,29,3,28,0,5,1,1,1,0,27,907.txt
0,0,13,0,0,0,24,0,0,7,0,6,5,29,0,26,30,5,17,24,22,30,23,20,22,26,23,6,17,8,21,2,18,0,21,18,6,19,24,9,18,0,13,0,0,0,0,0,0,1,0,9,1,1,25,29,3,28,0,5,1,1,1,0,27,909.txt
0,0,13,0,0,28,24,0,0,30,24,11,11,12,4,27,8,11,28,4,5,20,26,26,26,26,4,7,23,29,13,2,27,13,2,29,8,11,23,27,9,9,10,1,1,11,11,4,10,0,7,6,4,3,30,5,7,5,1,3,4,8,4,13,12,911.txt
0,0,13,0,0,0,24,0,0,7,24,6,5,29,4,26,30,5,28,4,22,30,26,26,26,26,4,6,23,8,13,2,27,13,21,18,15,19,24,9,18,0,18,0,0,2,2,7,2,1,0,13,1,1,25,29,3,28,0,5,1,1,1,13,27,914.txt
5,0,29,15,22,5,18,11,3,15,26,4,4,25,5,17,5,27,16,29,1,27,21,2,8,5,7,4,21,28,27,11,9,8,7,11,2,27,26,13,8,14,9,15,19,11,11,21,10,0,22,19,2,2,2,2,2,2,2,29,2,0,2,13,2,917.txt
16,0,13,23,0,0,1,1,1,7,0,1,1,1,1,26,1,21,17,1,22,30,1,1,1,1,2,6,2,8,1,1,1,1,21,18,6,8,24,9,18,0,13,0,0,0,0,0,0,1,0,9,1,1,1,29,3,28,0,5,1,1,1,0,1,922.txt
0,0,13,0,0,0,24,0,0,30,0,6,5,29,0,26,30,5,17,24,22,30,23,20,22,26,23,6,17,8,21,8,18,0,21,29,6,19,24,7,18,0,13,0,0,0,0,0,0,1,0,9,1,1,25,29,3,28,0,8,1,1,1,7,27,924.txt
0,0,13,0,0,0,24,0,0,7,0,6,5,29,0,26,30,5,17,24,22,30,23,20,22,26,23,6,17,8,21,2,18,0,21,18,6,19,24,9,18,0,13,0,0,0,0,0,0,0,0,9,4,3,30,29,3,28,0,5,2,0,2,0,2,925.txt
0,0,13,0,0,0,24,0,0,7,0,6,5,29,0,26,30,5,17,24,22,30,23,20,22,26,23,6,17,8,21,2,18,0,16,18,6,19,24,9,2,2,6,2,0,0,0,0,0,0,0,2,2,2,2,2,2,2,2,3,2,3,2,0,2,926.txt
5,0,13,0,0,30,30,30,30,30,24,13,13,6,4,27,12,4,28,15,5,12,6,6,6,26,18,4,9,28,4,17,12,9,2,2,21,11,23,13,9,9,10,1,1,11,11,21,10,0,22,19,12,14,12,12,7,15,1,18,4,17,13,13,12,928.txt
0,0,13,0,0,0,24,0,0,7,0,6,5,29,0,26,30,5,17,24,22,30,23,20,22,26,23,6,17,8,21,2,18,0,16,18,6,19,24,9,2,2,6,2,0,0,0,0,0,0,0,2,4,3,30,2,2,2,2,3,2,8,2,0,2,930.txt
0,0,13,0,0,0,24,0,0,7,0,6,5,29,0,26,30,5,17,24,22,30,23,20,22,26,23,6,17,8,21,2,18,0,21,18,6,19,24,9,18,0,13,0,0,0,0,0,0,9,0,9,9,11,9,29,3,28,0,5,4,3,6,2,9,932.txt
16,0,2,23,23,1,1,1,1,16,22,1,1,1,1,2,1,21,2,1,16,19,1,1,1,1,2,6,2,8,1,1,1,1,21,20,6,10,30,22,18,0,13,0,0,0,0,0,0,1,0,9,1,1,25,4,4,4,0,5,1,1,1,7,27,935.txt
0,0,13,0,0,0,24,0,0,30,24,11,11,15,4,26,13,15,28,4,22,30,26,26,26,26,4,7,23,29,15,0,3,19,2,29,25,26,12,28,9,9,10,3,3,12,12,4,13,13,7,6,0,0,0,19,6,13,16,1,5,8,4,17,5,940.txt
0,0,13,0,0,0,24,0,0,7,0,6,5,29,0,26,30,5,17,24,22,30,23,20,22,26,23,6,17,8,21,2,18,0,21,18,6,19,24,9,18,0,13,0,0,0,0,0,0,0,0,9,4,3,30,29,3,28,0,3,4,3,7,0,5,942.txt
21,0,29,15,22,16,23,5,26,18,26,16,17,26,26,17,23,29,11,27,30,13,19,18,7,17,20,24,26,2,25,17,12,9,2,23,26,28,21,24,23,28,25,5,6,18,18,3,30,15,12,12,25,24,23,11,24,29,14,23,8,27,30,18,6,944.txt
0,0,13,0,0,0,24,0,0,7,0,6,5,29,0,26,30,5,17,24,22,30,23,20,22,26,23,6,17,8,21,2,18,0,21,18,6,19,24,9,18,0,13,0,0,0,0,0,0,1,0,9,1,1,25,29,3,28,0,5,1,1,1,0,27,946.txt
0,0,13,0,0,0,24,0,0,7,0,6,5,29,0,26,30,5,17,24,22,30,23,20,22,26,23,6,17,8,21,2,18,0,21,18,6,19,24,9,18,0,13,0,0,0,0,0,0,0,0,9,4,3,30,29,3,28,0,5,4,3,4,0,5,949.txt
0,0,13,0,0,0,24,0,0,7,24,6,5,29,4,26,30,5,28,4,22,30,26,26,26,26,4,6,23,8,13,2,27,13,21,18,15,19,24,9,18,0,13,0,0,2,2,2,2,13,0,9,0,0,0,29,3,28,0,1,9,8,4,19,5,951.txt
0,0,13,0,0,30,24,0,0,30,24,11,11,12,4,27,8,11,14,4,5,20,26,26,26,26,4,7,23,29,13,2,27,13,1,9,8,11,23,27,8,14,9,14,13,11,11,4,10,22,6,5,4,3,30,6,7,6,6,3,4,0,5,1,7,954.txt
0,0,13,0,0,0,24,0,0,7,24,6,5,29,4,26,30,5,28,4,22,30,26,26,26,26,4,6,23,8,13,2,27,13,21,18,15,19,24,9,18,0,13,0,0,2,2,2,2,13,0,9,4,3,30,29,3,28,0,3,4,17,5,13,11,956.txt
0,0,13,0,0,0,24,0,0,7,0,6,5,29,0,26,30,5,17,24,22,30,23,20,22,16,23,6,17,8,21,2,18,0,21,18,6,19,24,9,18,0,13,0,0,0,0,0,0,1,0,9,1,1,25,29,3,28,0,5,1,1,1,2,27,959.txt
0,0,13,0,0,0,24,0,0,7,0,6,5,29,0,26,30,5,17,24,22,30,23,20,22,26,23,6,17,8,21,2,18,0,21,18,6,19,24,9,18,0,13,0,0,0,0,0,0,1,0,9,1,1,25,29,3,28,0,5,1,1,1,0,27,961.txt
0,0,13,0,0,0,24,0,0,7,0,6,5,29,0,26,30,5,17,24,22,30,23,20,22,26,23,6,17,8,21,2,18,0,21,18,6,19,24,9,18,0,13,0,0,0,0,0,0,1,0,9,1,1,25,29,3,28,0,5,1,1,1,0,27,962.txt
0,0,13,0,0,30,24,0,0,7,24,6,5,29,4,27,30,5,14,4,5,20,26,26,26,26,4,7,23,29,13,2,27,13,7,18,14,19,24,9,1,16,24,1,1,1,25,4,17,0,6,5,4,3,7,29,3,28,4,3,13,5,4,1,5,964.txt
0,0,13,0,0,30,24,0,0,7,0,6,5,29,0,27,30,5,17,24,5,20,23,20,22,26,23,9,17,29,21,2,18,0,7,18,6,19,24,9,8,14,9,15,16,11,11,5,10,14,6,5,4,3,30,29,3,28,4,3,4,14,12,0,15,966.txt
0,0,13,0,0,0,24,0,0,7,0,6,5,29,0,26,30,5,17,24,22,30,23,20,22,26,23,6,17,8,21,2,18,0,21,18,6,19,24,9,18,0,13,0,0,0,0,0,0,0,0,9,4,3,30,29,3,28,0,5,4,0,12,0,7,968.txt
0,0,13,0,0,0,24,0,0,7,0,6,5,29,0,26,30,5,17,24,22,30,23,20,22,26,23,6,17,8,21,2,18,0,21,18,6,19,24,9,18,0,13,0,0,0,0,0,0,1,0,9,1,1,25,29,3,28,0,5,1,1,1,0,27,970.txt
0,0,13,0,0,0,24,0,0,7,0,6,5,29,0,26,30,5,17,24,22,30,23,20,22,26,23,6,17,8,21,2,18,0,21,18,6,19,24,9,18,0,13,0,0,0,0,0,0,1,0,9,1,1,25,29,3,28,0,5,1,1,1,0,27,974.txt
0,0,13,0,0,0,24,0,0,7,18,6,5,29,0,26,30,5,17,24,22,30,23,20,22,26,23,6,17,8,21,2,18,0,21,18,6,19,24,9,18,0,18,0,0,0,0,0,0,0,0,13,6,8,5,29,3,28,0,5,27,0,5,0,5,975.txt
0,0,13,0,0,0,24,0,0,7,0,6,5,29,0,26,30,5,17,24,5,30,23,20,22,26,23,19,17,29,21,2,18,0,2,18,6,19,30,9,9,9,10,5,6,11,11,11,10,15,7,6,4,3,30,29,3,28,22,11,20,3,18,7,6,979.txt
0,19,13,0,27,25,24,21,24,14,0,6,5,29,0,23,30,5,17,24,17,23,23,20,22,30,23,18,17,14,21,0,18,0,12,19,6,19,8,21,9,9,10,21,29,11,11,30,10,14,1,1,6,11,5,29,3,28,22,7,7,8,23,7,8,981.txt
0,0,13,0,0,0,24,0,0,7,0,6,5,29,0,26,30,5,17,24,22,30,23,20,22,26,23,6,17,8,21,2,18,0,21,18,6,19,24,9,18,0,13,0,0,0,0,0,0,0,0,9,4,3,30,29,3,28,0,5,4,0,4,0,7,987.txt
0,0,13,0,0,0,25,0,0,7,0,6,5,29,0,26,30,5,17,24,22,30,23,20,22,26,23,6,17,8,21,8,18,0,21,19,6,19,24,2,18,0,13,0,4,0,0,0,0,0,4,9,9,11,9,29,3,28,0,4,4,3,27,0,5,989.txt
16,0,4,23,23,1,30,30,30,15,29,13,13,5,2,7,12,28,16,15,1,8,2,22,3,5,7,3,21,3,18,7,7,22,3,20,6,8,24,22,2,2,5,2,0,0,0,0,0,0,0,2,2,2,2,2,2,2,2,29,2,25,2,0,2,994.txt
0,0,13,0,0,0,24,0,0,7,0,6,5,29,0,26,30,5,17,24,22,30,23,20,22,26,23,6,17,8,21,2,18,0,21,18,6,19,24,9,18,0,13,0,0,0,0,0,0,1,0,9,1,1,25,29,3,28,0,5,1,1,1,0,27,996.txt
0,0,13,0,0,0,24,0,0,7,0,6,5,29,0,26,30,5,17,24,22,30,23,20,22,26,23,6,17,8,21,2,18,0,21,18,6,19,24,9,18,0,13,0,0,0,0,0,0,0,0,9,4,3,30,29,3,28,0,5,4,3,4,0,10,998.txt
0,0,13,0,0,0,24,0,0,7,0,6,5,29,0,26,30,5,17,24,22,30,23,20,22,26,23,6,17,8,21,2,18,0,21,18,6,19,24,9,18,0,13,0,0,0,0,0,0,1,0,9,1,1,25,29,3,28,0,5,1,1,1,7,27,1002.txt
0,0,13,0,0,0,24,0,0,7,24,6,5,29,6,26,30,5,28,5,22,30,6,6,6,26,18,6,5,8,20,2,20,25,21,18,15,19,24,9,18,0,13,0,0,2,2,6,2,13,0,9,4,3,7,29,3,28,0,5,16,17,5,9,10,1005.txt
0,0,13,0,0,0,24,0,0,7,0,6,5,29,0,26,30,5,17,24,22,30,23,20,22,26,23,6,17,8,21,2,18,0,21,18,6,19,24,9,18,0,13,0,4,0,0,0,0,1,4,9,1,1,25,29,3,28,0,5,1,1,1,0,27,1008.txt
0,0,13,0,0,0,24,0,0,7,24,6,5,29,4,26,30,5,15,4,22,30,6,6,6,26,12,6,12,8,16,2,17,18,21,18,18,19,17,9,18,0,13,0,2,10,10,2,9,9,2,9,2,2,2,29,3,28,0,5,4,16,18,13,15,1010.txt
0,0,13,0,0,0,24,0,0,7,0,6,5,29,0,26,30,5,17,24,22,30,23,20,22,26,23,6,17,8,21,2,18,0,21,18,6,19,24,9,18,0,13,0,0,0,0,0,0,1,0,9,1,1,25,29,3,28,0,5,1,1,1,0,27,1013.txt
0,0,13,0,0,30,24,0,0,7,0,6,5,29,0,27,30,5,17,24,5,20,23,20,22,26,23,19,17,29,21,2,18,0,23,18,6,19,24,9,8,3,9,15,13,3,21,11,3,0,6,5,4,3,30,29,3,28,22,5,4,0,27,0,5,1015.txt
0,0,13,0,0,0,24,0,0,7,0,6,5,29,0,26,30,5,17,24,22,30,23,20,22,26,23,6,17,8,21,2,18,0,21,18,6,19,17,9,18,0,13,0,0,0,0,0,0,1,0,9,1,1,25,29,3,28,0,5,1,1,1,0,27,1018.txt
16,0,29,3,16,1,30,30,30,15,29,13,13,2,17,7,12,22,16,15,1,10,30,18,3,17,16,6,20,8,11,29,30,11,16,20,15,10,9,22,10,24,29,18,2,6,6,16,23,9,2,11,19,22,4,25,29,9,12,16,30,6,27,30,25,1020.txt
0,0,13,0,0,0,25,0,0,7,14,6,5,30,4,26,27,5,28,4,22,24,27,27,27,27,4,5,4,3,14,8,15,14,4,28,15,23,8,21,2,2,2,2,0,2,2,2,2,29,0,3,6,11,5,25,25,11,12,4,7,8,23,13,13,1022.txt
0,0,13,0,0,30,24,0,0,7,24,6,5,29,4,27,30,5,28,4,5,20,26,26,26,26,4,9,23,29,13,2,27,13,2,18,14,19,24,9,17,29,1,10,18,21,16,23,28,15,7,6,4,3,7,29,3,28,4,3,29,3,4,13,9,1025.txt
0,0,13,0,0,0,24,0,0,7,0,6,5,29,0,26,30,5,17,24,22,30,23,20,22,26,23,6,17,8,21,2,18,0,21,18,6,19,24,9,18,0,13,0,8,0,0,0,0,0,15,9,4,3,7,29,3,28,0,5,3,3,27,0,5,1027.txt
0,0,13,0,0,0,24,0,0,30,13,6,5,29,4,26,30,5,28,4,22,30,26,26,26,26,4,6,4,8,13,2,27,13,16,29,15,19,24,27,2,2,29,2,0,2,2,2,2,29,0,11,0,0,0,6,7,6,6,1,4,4,23,13,15,1030.txt
0,0,13,0,0,0,24,0,0,7,0,6,5,29,0,26,30,5,17,24,22,30,23,20,22,26,23,6,17,8,21,2,18,0,21,18,6,19,24,9,18,12,13,6,0,0,0,0,0,1,0,9,1,1,25,29,3,28,0,5,1,1,1,0,27,1036.txt
0,0,13,0,0,0,24,0,0,7,24,6,5,29,4,26,30,5,28,4,22,30,6,6,6,26,12,6,23,8,13,2,27,13,21,18,14,19,24,9,18,0,13,0,0,2,2,2,2,1,0,9,1,1,25,29,3,28,0,5,1,1,1,13,27,1041.txt
0,0,13,0,0,30,24,0,0,30,24,11,11,12,4,27,8,11,28,4,5,20,26,26,26,26,4,9,23,29,13,2,27,13,2,10,2,27,26,3,1,22,15,28,19,24,25,23,25,15,7,6,4,3,7,2,2,2,2,3,2,3,2,13,2,1043.txt
0,0,13,0,0,0,24,0,0,7,0,6,5,29,0,26,30,5,17,24,22,30,23,20,22,26,23,6,17,8,21,2,18,0,21,18,6,19,24,9,18,0,13,0,0,0,0,0,0,1,0,9,1,1,25,29,3,28,0,5,1,1,1,0,27,1045.txt
0,0,13,0,0,0,24,0,0,7,0,6,5,29,0,26,30,5,17,24,22,30,23,20,22,26,23,6,17,8,21,2,18,0,21,18,6,19,24,9,18,0,13,0,0,0,0,0,0,1,0,9,1,1,25,29,3,28,0,5,1,1,1,0,27,1046.txt
0,0,13,0,0,30,24,0,0,30,3,11,11,19,4,27,13,16,3,4,18,12,26,26,26,26,4,19,23,29,13,2,27,13,7,1,21,11,21,27,25,14,26,21,16,11,11,11,10,26,29,15,22,7,22,6,7,6,6,8,7,4,12,15,22,1048.txt
0,0,13,0,0,0,24,0,0,7,0,6,5,29,0,26,30,5,17,24,22,30,23,20,22,26,23,6,17,8,21,2,18,0,21,18,6,19,24,9,18,0,13,0,0,0,0,0,0,9,0,9,4,3,30,29,3,28,0,5,7,3,23,7,16,1051.txt
0,0,13,0,0,0,24,0,0,7,0,6,5,29,0,26,30,5,17,24,22,30,23,20,22,26,23,6,17,8,21,2,18,0,21,18,6,19,24,9,18,0,13,0,0,0,0,0,0,1,0,9,1,1,25,29,3,28,0,5,1,1,1,0,27,1054.txt
0,0,13,0,0,30,24,0,0,7,24,6,5,29,4,27,30,5,28,4,5,20,26,26,26,26,4,9,23,29,13,2,27,13,1,18,15,19,24,9,25,14,26,26,17,11,11,24,10,15,7,6,4,3,30,8,10,8,4,5,7,8,23,13,19,1057.txt
0,0,13,0,0,0,24,0,0,7,0,6,5,29,0,26,30,5,17,24,22,30,23,20,22,26,23,6,17,8,21,2,18,0,21,18,6,19,24,9,18,0,13,0,0,0,0,0,0,0,0,9,4,3,30,29,3,28,0,3,4,3,3,0,5,1059.txt
0,0,13,0,0,0,24,0,0,7,0,6,5,29,0,26,30,5,17,24,22,30,23,20,22,26,23,6,17,8,21,2,18,0,21,18,6,19,24,9,18,0,13,0,0,0,0,0,0,1,0,9,1,1,25,29,3,28,0,5,1,1,1,0,27,1060.txt
0,0,13,0,0,0,24,0,0,7,24,6,5,29,4,26,30,5,14,4,22,30,26,26,26,26,4,6,23,8,13,2,27,13,21,18,18,19,24,9,18,0,13,0,0,2,2,2,2,9,0,9,4,3,30,29,3,28,0,5,7,0,23,15,13,1064.txt
0,0,13,0,0,0,24,0,0,7,0,6,5,29,0,26,30,5,17,24,22,30,23,20,22,26,23,6,17,8,21,2,18,0,21,18,6,19,24,9,18,0,13,0,0,0,0,0,0,1,0,9,1,1,25,29,3,28,0,5,1,1,1,0,27,1069.txt
0,0,13,0,0,0,24,0,0,7,0,6,5,29,0,26,30,5,17,24,22,30,23,20,22,26,23,6,17,8,21,2,18,0,21,19,6,19,24,9,18,0,13,0,0,0,0,0,0,1,0,9,1,1,25,29,3,28,0,5,1,1,1,7,27,1071.txt
0,0,13,0,0,0,24,0,0,7,0,6,5,29,0,26,30,5,17,24,22,30,23,20,22,26,23,6,17,8,21,2,18,0,21,18,6,19,24,9,18,0,13,0,0,0,0,0,0,1,0,9,1,1,25,29,3,28,0,5,1,1,1,0,27,1073.txt
0,0,13,0,0,0,24,0,0,30,13,11,23,22,22,26,13,20,14,23,22,30,27,27,27,26,4,6,4,8,14,8,15,14,21,29,25,26,13,27,18,0,13,0,0,2,2,2,2,29,0,9,0,0,0,29,3,28,0,1,7,4,12,15,3,1075.txt
0,0,13,0,0,0,24,0,0,7,0,6,5,29,0,26,30,5,17,24,22,30,23,20,22,26,23,6,17,8,21,2,18,0,21,18,6,19,24,9,18,0,13,0,0,0,0,0,0,1,0,9,1,1,25,29,3,28,0,5,1,1,1,0,27,1076.txt
0,0,13,0,0,0,24,0,0,7,0,6,5,29,0,26,30,5,17,24,22,30,23,20,22,26,23,6,17,8,21,2,18,0,21,18,6,19,24,9,18,0,13,0,0,0,0,0,0,0,0,9,4,3,30,29,3,28,0,3,2,3,2,0,2,1078.txt
0,0,13,0,0,0,24,0,0,7,0,6,5,29,0,26,30,5,17,24,22,30,23,20,22,26,23,6,17,8,21,2,18,0,21,18,6,19,24,9,18,0,13,0,0,0,0,0,0,1,0,9,1,1,25,29,3,28,0,5,1,1,1,7,27,1080.txt
0,0,13,0,0,0,24,0,0,7,0,6,5,29,0,26,30,5,17,24,22,30,23,20,22,26,23,6,17,8,21,2,18,0,21,18,6,19,24,9,18,0,13,0,0,0,0,0,0,1,0,9,1,1,25,29,3,28,0,4,1,1,1,7,27,1082.txt
0,0,13,0,0,0,24,0,0,7,0,6,5,29,0,26,30,5,17,24,22,30,23,20,22,26,23,6,17,8,21,0,18,0,21,28,6,19,24,2,18,0,13,0,0,0,0,0,0,1,0,9,1,1,25,29,3,28,0,5,1,1,1,0,27,1084.txt
0,20,13,0,0,0,24,0,0,7,0,6,5,29,0,26,30,5,17,24,22,30,23,20,22,26,23,6,17,8,21,2,18,0,21,18,6,19,24,9,18,0,13,0,8,0,0,0,0,1,15,9,1,1,25,29,3,28,0,5,1,1,1,7,27,1086.txt
0,0,13,0,0,0,24,0,0,30,13,6,5,29,4,26,30,5,14,4,22,30,27,27,27,26,4,3,4,3,13,2,27,13,16,9,15,19,24,27,2,2,29,2,0,2,2,2,2,1,0,11,1,1,25,6,7,6,6,1,1,1,1,1,27,1088.txt
16,0,13,23,0,0,1,1,1,7,0,1,1,1,1,26,1,21,17,1,22,30,1,1,1,1,2,6,2,8,1,1,1,1,21,18,6,8,24,9,18,0,13,0,0,0,0,0,0,1,0,9,1,1,25,29,3,28,0,5,1,1,1,0,27,1090.txt
0,0,13,0,0,30,25,0,0,30,3,0,0,19,3,27,18,16,3,3,18,20,26,26,26,26,4,19,15,29,16,6,17,18,7,1,21,4,23,28,7,14,8,1,1,11,11,11,10,0,9,8,9,8,9,6,7,6,6,10,4,4,4,1,7,1093.txt
0,0,13,0,0,0,24,0,0,7,0,6,5,29,0,26,30,5,17,24,22,30,23,20,22,26,23,6,17,8,21,2,18,0,21,18,6,19,24,9,18,0,13,0,0,0,0,0,0,1,0,9,1,1,25,29,3,28,0,5,1,1,1,0,27,1094.txt
0,0,13,0,0,0,24,0,0,30,24,11,11,15,4,26,13,15,28,4,22,30,26,26,26,26,4,3,13,3,5,8,5,5,16,29,21,17,23,28,2,2,6,8,0,2,2,2,2,29,0,3,0,0,0,19,25,10,16,1,5,8,14,17,15,1096.txt
0,0,13,0,0,0,24,0,0,7,0,6,5,29,0,26,30,5,17,24,22,30,23,20,22,26,23,6,17,8,21,2,18,0,21,18,6,19,24,9,18,0,13,0,0,0,0,0,0,0,0,9,2,2,2,29,3,28,0,5,27,0,4,0,7,1101.txt
0,0,13,0,0,0,24,0,0,7,0,6,5,29,0,26,30,5,17,24,22,30,23,20,22,26,23,6,17,8,21,2,18,0,21,18,6,19,24,9,18,0,13,0,0,0,0,0,0,1,0,9,1,1,25,29,3,28,0,5,1,1,1,7,27,1105.txt
0,0,13,0,0,0,24,0,0,7,0,6,5,29,0,26,30,5,17,24,22,30,23,20,22,26,23,6,17,8,21,2,18,0,21,18,6,19,24,9,18,0,13,0,0,0,0,0,0,1,0,9,1,1,25,29,3,28,0,5,1,1,1,0,27,1106.txt
16,0,13,15,0,0,6,5,5,7,24,5,7,2,8,26,6,9,14,29,22,30,21,9,3,9,16,6,20,8,27,11,9,15,16,15,18,10,9,15,14,15,6,2,4,26,30,16,9,9,4,2,13,15,13,20,7,10,1,24,7,6,18,1,15,1108.txt
0,0,13,0,0,0,24,0,0,7,0,6,5,29,0,26,30,5,17,24,22,30,23,20,22,26,23,6,17,8,21,5,18,0,21,18,6,19,24,2,18,0,13,0,2,0,0,0,0,0,2,9,4,3,30,29,3,28,0,5,3,3,7,0,10,1109.txt
0,0,13,0,0,0,24,0,0,7,0,6,5,29,0,26,30,5,17,24,22,30,23,20,22,26,23,6,17,8,21,2,18,0,21,18,6,19,24,9,18,0,13,0,0,0,0,0,0,1,0,9,1,1,25,29,3,28,0,5,1,1,1,0,27,1114.txt
0,19,13,0,24,30,24,16,12,12,24,11,11,12,4,27,8,11,24,4,5,20,26,26,26,28,4,9,23,29,13,2,27,13,12,5,30,11,23,5,8,14,9,15,19,11,11,23,10,15,7,6,4,3,30,23,20,11,1,3,13,3,5,13,15,1117.txt
0,0,13,0,0,0,25,0,0,7,0,6,5,29,0,26,30,5,17,24,22,30,23,20,22,26,23,6,17,8,21,0,18,0,21,19,6,19,24,2,18,0,13,0,0,0,0,0,0,1,0,9,1,1,25,29,3,28,0,5,1,1,1,7,27,1118.txt
0,0,13,0,0,0,24,0,0,7,0,6,5,29,0,26,30,5,17,24,6,30,23,20,22,26,23,9,17,29,21,2,18,0,7,18,6,19,24,9,13,14,3,5,6,11,11,23,10,15,28,30,10,11,26,29,3,28,22,5,3,5,5,0,6,1121.txt
0,0,13,0,0,30,24,0,0,30,24,11,11,12,4,27,8,11,28,4,5,20,6,6,6,26,12,20,23,29,13,2,27,13,2,29,2,27,26,27,9,9,10,9,9,11,11,23,10,0,7,6,4,3,30,2,2,2,2,3,2,3,2,13,2,1122.txt
0,0,13,0,0,0,24,0,0,7,0,6,5,29,0,26,30,5,17,24,22,30,23,20,22,26,23,6,17,8,21,2,18,0,21,28,6,19,24,9,18,0,13,0,0,0,0,0,0,1,0,9,1,1,25,29,3,28,0,5,1,1,1,0,27,1124.txt
0,0,13,0,0,0,24,0,0,7,0,6,5,29,0,26,30,5,17,24,22,30,23,20,22,26,23,6,17,8,21,2,18,0,21,18,6,19,24,9,18,0,13,0,0,0,0,0,0,1,0,9,1,1,25,29,3,28,0,5,1,1,1,7,27,1126.txt
0,24,13,27,0,0,24,0,0,30,12,6,5,29,6,26,30,5,10,5,22,30,25,25,2,26,10,6,5,8,5,19,5,5,21,25,15,19,8,7,18,0,13,0,5,27,10,10,9,10,15,9,0,0,0,29,3,28,0,1,25,13,14,29,15,1128.txt
0,0,13,0,0,0,24,0,0,7,18,6,5,29,0,26,30,5,17,24,22,30,23,20,22,26,23,6,17,8,21,2,18,0,21,18,6,19,24,9,18,0,18,0,0,0,0,0,0,1,0,13,1,1,25,29,3,28,0,5,1,1,1,0,27,1130.txt
0,0,13,0,0,0,24,0,0,7,0,6,5,29,0,26,30,5,17,24,22,30,23,20,22,26,23,6,17,8,21,2,18,0,21,18,6,19,24,9,18,0,13,0,0,0,0,0,0,0,0,9,4,3,30,29,3,28,0,3,4,5,5,0,7,1135.txt
0,0,13,0,0,0,24,0,0,7,24,6,5,29,4,26,30,5,28,4,22,30,6,6,6,26,18,6,23,8,13,2,27,13,21,29,15,19,24,27,18,0,13,0,0,2,2,2,2,12,0,9,4,3,30,29,3,28,0,3,4,8,7,13,11,1136.txt
0,0,13,0,0,30,24,0,0,30,3,11,11,19,6,27,13,30,20,5,18,20,12,12,12,26,18,9,5,29,16,8,17,18,2,1,21,16,23,27,9,9,10,1,1,11,11,23,10,0,28,30,9,11,9,11,21,10,10,10,30,30,5,30,11,1137.txt
0,0,13,0,0,0,24,0,0,7,0,6,5,29,0,26,30,5,17,24,22,30,23,20,22,26,23,6,17,8,21,2,18,0,21,18,6,19,24,9,18,0,13,0,0,0,0,0,0,30,0,9,2,2,2,29,3,28,0,5,29,5,4,0,5,1139.txt
0,0,0,0,0,30,24,0,0,9,24,7,19,8,4,27,7,10,14,4,5,20,26,26,26,23,4,14,23,25,13,2,27,13,7,7,4,11,23,29,8,14,9,15,16,11,11,26,10,0,21,23,12,27,12,6,7,6,6,19,4,14,4,1,3,1141.txt
0,0,13,0,0,0,24,0,0,7,3,6,5,29,6,26,30,5,10,5,22,30,25,29,28,26,22,6,13,8,20,2,19,24,16,18,18,19,8,9,10,11,6,20,2,20,10,2,22,9,2,3,23,29,27,9,25,23,23,30,26,18,18,17,15,1143.txt
0,0,13,0,0,0,24,0,0,7,0,6,5,29,0,26,30,5,17,24,22,30,23,20,22,26,23,6,17,8,21,2,18,0,21,18,6,19,24,9,18,0,13,0,0,0,0,0,0,1,0,9,1,1,25,29,3,28,0,5,1,1,1,0,27,1147.txt
0,0,13,0,0,0,24,0,0,7,0,6,5,29,0,26,30,5,17,24,22,30,23,20,22,26,23,6,17,8,21,2,18,0,21,6,6,18,24,6,18,0,13,0,2,0,0,0,0,1,2,9,1,1,25,22,19,27,0,3,1,1,1,0,27,1149.txt
0,20,13,0,0,0,24,0,0,7,13,6,5,29,13,26,30,5,28,11,22,30,12,12,19,26,12,6,13,8,16,8,17,18,21,19,15,19,24,2,18,13,13,7,27,10,10,2,19,9,26,9,22,11,22,29,3,28,0,5,7,13,18,13,8,1151.txt
0,0,13,0,0,0,24,0,0,7,0,6,5,29,0,26,30,5,17,24,22,30,23,20,22,26,23,6,17,8,21,0,18,0,21,18,6,19,24,9,18,0,13,0,0,0,0,0,0,1,0,9,1,1,25,29,3,28,0,5,1,1,1,0,27,1152.txt
0,0,13,0,0,0,24,0,0,7,0,6,5,29,0,26,30,5,17,24,22,30,23,20,22,26,23,6,17,8,21,2,18,0,21,18,6,19,24,9,18,0,13,0,0,0,0,0,0,1,0,9,1,1,25,29,3,28,0,5,1,1,1,0,27,1156.txt
0,0,13,0,0,0,24,0,0,7,0,6,5,29,0,26,30,5,17,24,22,30,23,20,22,26,23,6,17,8,21,2,18,0,21,18,6,19,17,9,18,0,13,0,8,0,0,0,0,1,26,9,1,1,25,29,3,28,0,8,1,1,1,0,27,1158.txt
0,0,13,0,0,0,24,0,0,7,0,6,5,29,0,26,30,5,17,24,22,30,23,20,22,26,23,6,17,8,21,2,18,0,21,18,6,19,8,9,18,0,13,0,0,0,0,0,0,1,0,9,1,1,25,29,3,28,0,5,1,1,1,7,27,1161.txt
0,0,13,0,0,0,24,0,0,7,0,6,5,29,0,26,30,5,17,24,22,30,23,20,22,26,23,6,17,8,21,2,18,0,21,18,6,19,24,9,18,0,13,0,0,0,0,0,0,1,0,9,1,1,25,29,3,28,0,5,1,1,1,0,27,1166.txt
0,0,13,0,0,30,24,0,0,7,3,6,5,29,4,27,30,5,3,4,5,20,26,26,26,26,4,9,5,29,16,2,17,18,23,18,18,19,24,9,8,3,9,15,10,11,11,23,10,15,6,5,4,3,30,29,3,28,22,3,27,0,5,1,9,1168.txt
23,3,30,15,23,1,23,8,3,6,7,5,7,21,8,6,6,6,7,18,1,9,16,9,3,12,8,11,10,12,11,7,7,20,10,27,7,22,6,14,10,11,6,4,27,0,27,28,27,11,15,28,13,15,13,24,22,23,9,6,3,14,17,6,8,1169.txt
0,0,13,0,0,30,24,0,0,30,24,11,11,12,4,27,8,11,28,4,5,20,29,4,4,26,4,4,23,29,13,2,27,13,2,27,2,27,26,11,9,9,10,9,9,28,21,23,11,15,7,6,13,15,13,2,2,2,2,3,2,21,22,10,2,1171.txt
0,0,13,0,0,0,24,0,0,7,24,6,5,29,4,26,30,5,28,4,22,30,26,26,26,26,4,6,23,8,13,2,27,13,21,18,18,19,24,9,18,0,18,0,0,2,2,2,2,0,0,13,6,11,5,29,3,28,0,5,29,3,5,13,5,1175.txt
0,0,13,0,0,0,24,0,0,7,24,6,5,29,4,26,30,5,28,4,22,30,6,6,6,26,18,6,23,8,13,2,27,13,21,18,14,19,24,9,18,0,13,0,0,2,2,2,2,0,0,9,3,5,21,29,3,28,0,3,4,3,7,13,10,1177.txt
16,0,13,23,0,0,1,1,1,7,0,1,1,1,1,26,1,21,17,1,22,30,1,1,1,1,2,6,2,8,1,1,1,1,21,18,6,8,24,9,18,0,13,0,0,0,0,0,0,1,0,9,1,1,25,29,3,28,0,5,1,1,1,7,27,1179.txt
0,0,13,0,0,0,24,0,0,7,0,6,5,29,0,26,30,5,17,24,22,30,23,20,22,26,23,6,17,8,21,2,18,0,21,3,6,19,24,9,18,0,13,0,0,0,0,0,0,1,0,9,1,1,25,29,3,28,0,5,1,1,1,7,27,1183.txt
0,0,13,0,0,0,24,0,0,7,24,11,11,12,4,26,8,11,28,4,22,30,27,27,27,26,4,3,23,3,13,2,27,13,16,18,2,27,26,9,2,2,6,2,0,2,2,2,2,0,0,2,2,2,2,17,14,16,21,3,18,0,2,13,2,1184.txt
16,0,13,25,0,0,1,1,1,7,0,1,1,1,0,26,1,21,17,1,22,30,23,20,22,26,23,6,2,8,1,1,1,1,21,18,6,8,30,9,18,0,13,0,0,0,0,0,0,1,0,26,1,1,1,4,4,4,0,5,1,1,1,0,1,1190.txt
16,0,13,23,0,0,9,5,28,7,3,16,17,2,26,26,16,27,3,29,22,30,21,22,3,5,7,3,21,3,27,11,9,8,16,18,4,15,23,9,14,15,6,2,4,26,30,2,22,0,4,2,2,2,2,6,7,6,6,29,4,0,12,13,5,1192.txt
0,0,13,0,0,0,24,0,0,7,0,6,5,29,0,26,30,5,17,24,22,30,23,20,22,26,23,6,17,8,21,2,18,0,21,18,6,19,24,9,18,0,13,0,0,0,0,0,0,1,0,9,1,1,25,29,3,28,0,5,1,1,1,0,27,1194.txt
0,0,13,0,0,0,24,0,0,30,24,11,11,12,4,26,8,11,28,4,22,30,26,26,26,26,4,3,23,3,13,2,27,13,16,29,2,27,26,27,2,2,6,2,0,2,2,2,2,0,0,2,4,3,30,2,2,2,2,3,2,8,2,13,2,1196.txt
0,0,13,0,0,30,24,0,0,30,3,11,11,19,4,27,13,30,20,4,5,20,26,26,26,26,4,19,5,29,16,8,17,18,1,1,2,27,26,27,8,14,9,3,3,11,11,11,10,0,29,15,10,11,10,2,2,2,2,15,2,8,2,17,2,1197.txt
0,0,13,0,0,0,24,0,0,7,3,6,5,29,4,26,30,5,3,4,22,30,26,26,26,26,4,3,23,3,13,2,27,13,16,18,15,19,24,9,10,11,29,2,5,20,10,2,19,13,26,11,0,0,0,12,7,11,26,1,4,8,23,13,7,1199.txt
0,0,13,0,0,0,25,0,0,30,0,6,5,30,0,26,27,5,17,24,22,24,23,20,22,27,23,6,17,8,21,0,18,0,16,29,6,23,10,28,2,2,6,20,0,0,0,0,0,9,0,3,6,11,5,25,6,29,12,8,3,13,14,7,15,1201.txt
0,0,13,0,0,0,24,0,0,7,24,6,5,29,4,26,30,5,28,4,22,30,6,6,6,26,18,6,23,8,13,2,27,13,21,18,15,19,24,9,18,0,13,0,0,2,2,2,2,9,0,9,4,3,30,29,3,28,7,3,16,8,18,30,20,1203.txt
0,0,13,0,0,0,24,0,0,7,24,6,5,29,4,26,30,5,28,4,22,30,26,26,26,26,4,6,23,8,13,2,27,13,16,18,14,19,24,9,2,2,2,2,0,2,2,6,2,13,0,27,0,0,0,12,7,13,1,1,11,17,5,13,11,1205.txt
21,24,13,15,0,0,6,24,5,7,24,16,17,9,26,26,17,21,28,29,22,30,21,28,10,1,2,6,2,8,12,27,30,10,21,18,9,10,8,9,18,0,13,0,4,26,30,6,22,11,4,9,23,29,29,29,3,28,0,20,24,20,14,29,8,1207.txt
0,0,15,0,0,0,24,0,0,9,0,6,5,29,0,0,4,5,17,0,0,28,0,20,0,23,23,0,17,0,0,2,18,0,0,6,6,18,24,6,0,13,0,7,0,0,0,0,0,1,0,0,1,1,25,22,19,27,0,5,1,1,1,2,27,1211.txt
0,0,13,0,0,0,24,0,0,7,0,6,5,29,0,26,30,5,17,24,22,30,23,20,22,26,23,6,17,8,21,2,18,0,21,18,6,19,24,9,18,0,13,0,0,0,0,0,0,1,0,9,1,1,25,29,3,28,0,5,1,1,1,7,27,1214.txt
0,0,13,0,0,0,24,0,0,7,0,6,5,29,0,26,30,5,17,24,22,30,23,20,22,26,23,6,17,8,21,2,18,0,21,18,6,19,24,9,18,0,13,0,0,0,0,0,0,1,0,9,1,1,25,29,3,28,0,5,1,1,1,0,27,1216.txt
0,0,13,0,0,30,24,0,0,30,24,6,5,29,4,27,30,5,28,4,18,23,26,26,26,26,4,9,23,29,13,0,27,13,2,29,14,19,24,27,9,9,10,1,1,11,11,12,10,0,28,30,6,11,5,19,7,13,1,7,4,8,4,13,5,1217.txt
0,0,13,0,0,0,24,0,0,7,0,6,5,29,0,26,30,5,17,24,22,30,23,20,22,26,23,6,17,8,21,2,18,0,21,18,6,19,24,9,18,0,13,0,0,0,0,0,0,1,0,9,1,1,25,29,3,28,0,5,1,1,1,0,27,1219.txt
0,20,13,30,0,0,11,6,6,7,12,3,3,23,3,26,3,3,3,3,22,30,3,29,28,26,10,6,6,8,16,3,17,18,21,6,5,18,27,6,18,0,13,0,2,6,6,2,9,0,2,9,5,19,6,22,19,27,0,3,4,30,7,1,7,1221.txt
5,0,4,3,16,1,30,30,30,15,29,13,13,2,14,7,12,4,16,7,1,10,24,16,3,2,16,3,18,3,26,26,29,11,16,18,15,8,24,9,5,5,6,20,2,6,6,16,22,29,2,29,12,26,12,26,29,9,10,21,5,6,6,17,25,1225.txt
0,0,13,0,0,0,24,0,0,7,24,6,5,29,4,26,30,5,28,4,22,30,26,26,26,26,4,6,23,8,13,2,27,13,21,18,15,19,24,9,18,0,13,0,0,2,2,2,2,1,0,9,1,1,25,29,3,28,0,5,1,1,1,13,27,1228.txt
0,0,13,0,0,0,24,0,0,7,24,6,5,29,4,26,30,5,28,4,22,30,26,26,26,26,4,3,23,3,13,2,27,13,16,18,18,19,24,9,2,2,6,2,0,2,2,2,2,9,0,11,4,3,30,6,7,6,6,3,7,0,12,13,13,1230.txt
0,0,13,0,0,0,24,0,0,7,0,6,5,29,0,26,30,5,17,24,22,30,23,20,22,26,23,6,17,8,21,2,18,0,21,18,6,19,24,9,18,0,13,0,0,0,0,0,0,1,0,9,1,1,25,29,3,28,0,3,1,1,1,0,27,1234.txt
0,0,13,0,0,0,24,0,0,7,0,6,5,29,0,26,30,5,17,24,22,30,23,20,22,26,23,6,17,8,21,2,18,0,21,18,6,19,24,9,18,0,13,0,0,0,0,0,0,1,0,9,1,1,25,29,3,28,0,5,1,1,1,22,27,1237.txt
16,0,13,23,0,0,1,1,1,7,0,1,1,1,1,26,1,21,17,1,22,30,1,1,1,1,2,6,2,8,1,1,1,1,21,6,6,18,24,6,18,0,13,0,4,0,0,0,0,1,4,9,1,1,25,29,3,28,0,5,1,1,1,0,27,1239.txt
16,3,29,15,14,1,6,24,15,15,26,16,17,9,26,19,11,19,16,27,24,26,19,11,3,1,20,6,19,8,12,27,30,20,21,20,9,8,8,22,18,0,13,0,27,27,10,8,22,9,26,9,30,21,19,29,3,28,0,16,7,14,19,13,14,1241.txt
0,20,13,30,0,0,25,0,0,7,0,6,5,29,0,26,30,5,17,24,22,30,23,20,22,26,23,6,17,8,21,5,18,0,21,18,6,19,5,2,18,0,13,0,2,0,0,0,0,0,2,9,7,4,6,29,3,28,0,3,2,0,2,2,2,1243.txt
16,0,4,23,16,1,30,30,30,15,29,13,13,2,2,7,12,4,16,15,1,10,2,16,3,2,16,3,21,10,4,12,10,11,16,18,14,10,24,22,2,2,6,20,2,6,6,10,9,13,2,2,2,2,2,11,29,14,10,29,5,6,7,17,5,1245.txt
0,0,13,0,0,0,24,0,0,7,0,6,5,29,0,26,30,5,17,24,22,30,23,20,22,26,23,6,17,8,21,2,18,0,21,18,6,19,24,9,18,0,13,0,2,0,0,0,0,1,2,9,1,1,25,29,3,28,0,5,1,1,1,0,27,1249.txt
0,0,13,0,0,0,24,0,0,7,0,6,5,29,0,26,30,5,17,24,22,30,23,20,22,26,23,6,17,8,21,2,18,0,21,18,6,19,24,9,18,0,13,0,0,0,0,0,0,1,0,9,1,1,25,29,3,28,0,5,1,1,1,7,27,1251.txt
0,0,13,1,30,27,24,16,12,14,3,6,5,29,9,10,30,5,3,4,25,23,30,8,18,2,14,14,6,25,20,2,19,24,7,7,14,19,24,15,16,17,7,3,3,30,19,14,18,14,3,4,17,21,19,6,20,6,6,19,13,4,4,1,3,1254.txt
0,1,11,27,30,30,24,16,12,11,24,7,19,8,28,15,7,10,24,3,5,23,6,6,6,28,12,17,6,28,22,15,22,27,12,16,8,4,19,19,9,9,10,3,3,11,11,21,10,13,22,19,4,3,30,21,13,10,10,18,5,7,5,17,5,1255.txt
0,24,13,27,0,25,25,0,0,30,12,12,12,22,3,11,18,20,23,20,17,14,27,27,27,27,4,10,6,14,5,5,5,5,14,24,21,15,25,7,24,7,27,3,3,12,12,27,13,22,9,8,0,0,0,25,18,12,24,1,25,2,13,17,12,1267.txt
16,0,13,3,0,0,30,30,30,7,0,13,13,2,2,26,12,27,17,29,22,30,21,22,3,5,7,26,7,12,27,11,9,11,16,18,6,10,24,9,5,5,6,8,4,0,0,0,0,0,4,2,3,5,21,20,13,14,10,18,3,3,5,0,5,1271.txt
5,0,29,15,14,10,23,10,26,26,30,26,27,25,29,17,23,19,11,25,7,26,2,8,20,2,21,27,7,23,4,12,10,11,7,15,21,16,21,13,21,16,20,29,14,24,24,26,17,26,21,20,19,22,4,25,29,29,16,21,5,24,4,17,4,1274.txt
0,0,13,11,0,27,24,0,0,30,24,11,23,12,22,23,8,11,28,19,25,15,26,26,26,26,4,7,23,29,15,0,3,14,2,29,21,17,21,18,9,9,10,1,1,12,12,4,13,27,7,6,4,3,30,25,6,11,16,13,4,8,3,13,4,1276.txt
16,0,13,23,0,0,30,30,30,7,0,13,13,2,17,26,12,21,17,25,22,30,30,16,3,1,2,6,2,8,11,26,29,15,21,18,6,10,24,9,18,0,13,0,2,0,0,0,0,9,2,9,12,26,12,29,3,28,0,27,23,14,18,2,15,1278.txt
0,0,13,0,0,0,24,0,0,7,0,6,5,29,0,26,30,5,17,24,22,30,23,20,22,26,23,6,17,8,21,2,18,0,21,18,6,19,24,9,18,0,13,0,0,0,0,0,0,1,0,9,1,1,25,29,3,28,0,5,1,1,1,0,27,1280.txt
16,0,2,23,23,1,30,30,30,16,22,13,13,2,2,20,12,21,22,29,16,19,21,2,3,5,2,6,2,8,27,11,9,11,16,20,6,10,24,22,2,2,6,2,0,0,0,0,0,0,0,2,2,2,2,2,2,2,2,29,2,3,2,7,2,1283.txt
19,0,27,15,22,1,23,10,26,15,5,8,8,11,9,25,10,14,16,18,1,8,24,24,3,19,26,5,14,12,9,29,30,26,4,22,26,28,7,13,10,11,6,4,27,27,10,2,22,29,26,2,24,23,4,24,25,26,16,30,25,11,20,29,3,1285.txt
0,0,13,0,0,0,24,0,0,7,0,6,5,29,0,26,30,5,17,24,22,30,23,20,22,26,23,6,17,8,21,2,18,0,21,18,6,19,24,9,18,0,13,0,2,0,0,0,0,0,2,9,4,3,30,29,3,28,0,3,3,3,4,0,30,1287.txt
0,0,13,0,0,30,25,0,0,30,14,11,11,22,4,27,13,20,28,4,6,23,27,27,27,26,4,18,4,29,14,0,15,14,2,29,27,17,22,28,16,17,7,11,11,18,25,12,18,13,28,30,0,0,0,3,3,3,25,1,4,8,27,13,12,1288.txt
5,26,4,3,3,1,30,30,30,15,29,13,13,11,17,7,12,4,16,15,24,10,30,16,3,2,16,3,9,10,12,27,30,16,16,15,15,10,24,15,5,5,6,18,2,6,6,16,9,10,2,2,11,13,11,26,29,20,10,27,25,6,18,17,15,1290.txt
16,20,29,23,23,1,6,22,5,15,6,5,7,2,8,8,6,4,16,29,21,10,21,9,3,7,7,3,9,10,27,11,9,16,16,20,6,10,8,22,14,15,6,8,4,0,0,0,0,9,4,2,12,27,12,19,25,9,12,16,3,19,18,7,16,1292.txt
0,0,13,0,0,0,24,0,0,7,0,6,5,29,0,26,30,5,17,24,22,30,23,20,22,26,23,6,17,8,21,2,18,0,21,18,6,19,24,9,18,0,13,0,0,0,0,0,0,1,0,9,1,1,25,29,3,28,0,5,1,1,1,7,27,1295.txt
16,0,13,3,0,30,30,30,30,7,24,13,13,2,14,27,12,27,28,29,5,20,21,22,3,2,9,23,7,17,27,11,9,11,2,18,11,11,22,9,21,20,24,3,3,1,24,26,25,0,21,20,3,5,21,20,7,13,1,21,4,3,4,13,5,1297.txt
0,0,13,0,0,0,24,0,0,7,0,11,11,12,0,26,30,5,17,24,22,30,23,20,22,26,23,6,17,8,21,2,18,0,16,18,22,11,23,9,2,2,6,20,0,0,0,0,0,9,0,2,4,3,30,24,6,29,23,3,3,11,18,7,16,1300.txt
19,0,30,3,23,15,30,30,30,5,29,13,13,6,2,7,12,24,16,29,1,27,21,8,3,5,7,4,26,28,27,17,12,9,1,7,2,27,26,25,27,22,7,3,3,21,24,21,25,15,22,19,24,5,24,17,14,16,21,18,18,0,2,1,24,1302.txt
0,0,13,0,0,0,24,0,0,7,0,6,5,29,0,26,30,5,17,24,22,30,23,20,22,26,23,6,17,8,21,2,18,0,21,18,6,19,24,9,18,0,13,0,0,0,0,0,0,1,0,9,1,1,25,29,3,28,0,5,1,1,1,0,27,1303.txt
0,0,13,0,0,30,24,0,0,7,24,6,5,29,4,3,30,5,26,4,6,15,26,26,26,14,4,7,23,1,13,2,27,13,7,18,15,19,24,9,8,14,9,1,1,11,11,4,10,4,9,8,6,8,5,12,7,13,26,8,4,8,4,13,7,1305.txt
0,0,13,0,0,0,24,0,0,7,0,6,5,29,0,26,30,5,17,24,5,30,23,20,22,26,23,9,17,29,21,2,18,0,23,18,6,19,24,9,8,14,9,27,11,11,11,24,10,0,6,5,4,3,30,29,3,28,4,5,4,14,23,22,5,1307.txt
0,0,13,0,0,30,24,0,0,30,24,11,11,19,4,27,30,5,28,4,18,15,26,26,26,26,4,7,23,29,15,8,3,19,2,29,21,17,23,27,9,9,10,1,1,11,11,4,10,7,8,7,6,10,5,12,7,13,1,7,4,8,6,13,11,1309.txt
0,0,13,0,0,0,24,0,0,7,0,6,5,29,0,26,30,5,17,24,22,30,23,20,22,26,23,6,17,8,21,2,18,0,21,18,6,19,24,9,18,0,13,0,0,0,0,0,0,1,0,9,1,1,25,29,3,28,0,5,1,1,1,7,27,1311.txt
0,0,13,0,0,0,24,0,0,7,0,6,5,29,0,26,30,5,17,24,22,30,23,20,22,26,23,6,17,8,21,2,18,0,21,18,6,19,24,9,18,0,13,0,0,0,0,0,0,1,0,9,1,1,25,29,3,28,0,5,1,1,1,0,27,1314.txt
0,0,13,0,0,0,24,0,0,7,0,6,5,29,0,26,30,5,17,24,22,30,23,20,22,26,23,6,17,8,21,2,18,0,21,18,6,19,24,9,18,0,13,0,0,0,0,0,0,1,0,9,1,1,25,29,3,28,0,8,1,1,1,0,27,1315.txt
0,0,13,0,0,0,24,0,0,7,0,6,5,29,0,26,30,5,17,24,22,30,23,20,22,26,23,6,17,8,21,2,18,0,21,18,6,19,24,9,18,0,13,0,8,0,0,0,0,9,5,9,4,3,30,29,3,28,0,5,29,0,27,7,9,1317.txt
0,0,13,0,0,0,24,0,0,7,0,6,5,29,0,26,30,5,17,24,22,30,23,20,22,26,23,6,17,8,21,8,18,0,21,28,6,19,24,2,18,0,13,0,0,0,0,0,0,0,0,9,10,11,26,29,3,28,0,15,4,3,7,0,5,1318.txt
0,0,13,0,0,0,24,0,0,7,24,6,5,29,4,26,30,5,28,4,22,30,26,26,26,26,4,6,23,8,13,2,27,13,21,18,15,19,24,9,18,0,13,0,0,2,2,2,2,1,0,9,1,1,25,29,3,28,0,5,1,1,1,13,27,1320.txt
0,0,13,0,0,0,24,0,0,7,0,6,5,29,0,26,30,5,17,24,22,30,23,20,22,26,23,6,17,8,21,2,18,0,21,18,6,19,24,9,18,0,13,0,8,0,0,0,0,1,15,9,1,1,25,29,3,28,0,5,1,1,1,7,27,1323.txt
0,0,13,0,0,0,24,0,0,7,0,6,5,29,0,26,30,5,17,24,22,30,23,20,22,26,23,6,17,8,21,2,18,0,21,18,6,19,24,9,18,0,13,0,8,0,0,0,0,0,15,9,4,3,30,29,3,28,0,3,3,3,7,0,5,1325.txt
0,0,13,0,0,0,24,0,0,7,0,6,5,29,0,26,30,5,17,24,22,30,23,20,22,26,23,6,17,8,21,2,18,0,21,6,6,18,24,6,18,0,13,0,2,0,0,0,0,9,2,9,4,3,7,29,3,28,0,3,4,0,6,0,3,1327.txt
0,0,13,0,0,0,24,0,0,30,24,11,11,12,4,26,8,11,28,4,22,30,26,26,26,26,4,3,23,3,13,16,27,13,16,29,21,11,21,27,5,5,6,2,5,20,10,2,9,9,25,2,4,3,30,12,7,21,1,3,4,8,18,13,15,1329.txt
0,0,13,0,0,0,24,0,0,7,3,6,5,29,6,26,30,5,3,5,22,30,26,26,26,26,4,6,5,8,16,2,17,18,21,18,18,19,24,9,18,0,13,0,0,2,2,2,2,0,0,9,4,3,6,29,3,28,0,5,4,14,5,1,3,1331.txt
0,0,13,0,0,27,25,0,0,7,13,6,5,29,15,23,30,5,28,20,14,23,12,12,19,26,12,18,6,5,20,0,19,24,2,19,15,19,17,2,19,18,7,11,10,15,24,12,15,13,28,30,26,11,8,29,3,28,22,4,9,30,7,17,5,1332.txt
0,0,13,0,0,0,24,0,0,7,0,6,5,29,0,26,30,5,17,24,22,30,23,20,22,16,23,6,17,8,21,2,18,0,21,18,6,19,24,9,18,0,13,0,4,0,0,0,0,1,4,9,1,1,25,29,3,28,0,5,1,1,1,0,27,1335.txt
5,0,4,3,16,5,30,30,30,15,29,13,13,11,2,7,12,1,16,25,1,27,2,2,8,5,7,4,7,28,11,29,30,8,7,15,21,11,23,13,8,14,9,3,3,11,11,21,10,13,22,19,19,22,21,13,29,13,16,16,4,6,5,1,7,1337.txt
0,0,13,0,0,0,24,0,0,7,0,6,5,29,0,26,30,5,17,24,22,30,23,20,22,26,23,6,17,8,21,2,18,0,21,18,6,19,24,9,18,0,13,0,0,0,0,0,0,13,0,9,4,3,7,29,3,28,0,5,3,3,6,7,5,1339.txt
0,0,13,0,0,0,24,0,0,7,24,6,5,29,4,26,30,5,28,4,22,30,6,6,6,26,12,6,15,8,20,2,19,24,21,18,15,19,24,9,18,0,13,0,0,2,2,2,2,13,0,9,4,3,30,29,3,28,0,5,17,17,7,13,5,1341.txt
0,0,13,0,0,0,24,0,0,7,0,6,5,29,0,26,30,5,17,24,22,30,23,20,22,26,23,6,17,8,21,2,18,0,21,18,6,19,24,9,18,0,13,0,0,0,0,0,0,0,0,9,6,11,5,29,3,28,0,8,3,3,4,0,5,1344.txt
0,0,13,0,0,0,24,0,0,7,0,6,5,29,0,26,30,5,17,24,22,30,23,20,22,26,23,6,17,8,21,2,18,0,21,18,6,19,24,9,18,0,13,0,0,0,0,0,0,1,0,9,1,1,25,29,3,28,0,5,1,1,1,0,27,1346.txt
0,0,13,0,0,0,24,0,0,7,0,6,5,29,0,26,30,5,17,24,22,30,23,20,22,26,23,6,17,8,21,2,18,0,21,18,6,19,24,9,18,0,13,0,0,0,0,0,0,0,0,9,4,3,30,29,3,28,0,5,4,3,4,0,5,1348.txt
13,20,29,26,14,15,29,5,18,5,26,16,17,9,26,17,24,23,21,14,8,13,17,10,3,20,20,28,26,2,18,27,30,10,14,0,21,20,19,0,21,28,1,10,14,29,18,3,29,17,21,21,15,17,15,15,24,30,15,23,30,27,18,30,18,1351.txt
0,0,13,0,0,0,24,0,0,7,0,6,5,29,0,26,30,5,17,24,22,30,23,20,22,26,23,6,17,8,21,2,18,0,21,18,6,19,24,9,18,0,13,0,0,0,0,0,0,0,0,9,4,3,30,29,3,28,0,5,4,3,7,0,5,1352.txt
0,0,13,0,0,0,24,0,0,7,3,6,5,29,4,26,30,5,3,4,22,30,26,26,26,26,4,6,12,8,5,2,5,5,21,18,19,19,24,9,18,0,13,0,0,2,2,2,2,1,0,9,1,1,25,29,3,28,0,1,1,1,1,1,27,1354.txt
0,0,13,0,0,0,24,0,0,7,0,6,5,29,0,26,30,5,17,24,22,30,23,20,22,26,23,6,17,8,21,2,18,0,21,18,6,19,17,9,18,0,13,0,0,0,0,0,0,13,0,9,9,11,9,29,3,28,0,8,4,8,5,0,7,1356.txt
0,0,13,0,0,0,24,0,0,7,3,6,5,29,3,26,30,5,3,3,22,30,26,26,26,26,4,6,15,8,20,2,19,24,21,18,14,19,24,9,18,0,13,0,2,6,6,2,9,6,2,9,9,8,9,29,3,28,0,5,4,4,4,1,5,1358.txt
0,0,13,0,0,0,24,0,0,7,0,6,5,29,0,26,30,5,17,24,22,30,23,20,22,26,23,6,17,8,21,2,18,0,21,19,6,19,24,9,18,0,13,0,27,0,0,0,0,1,15,9,1,1,25,29,3,28,0,5,1,1,1,6,27,1360.txt
0,0,13,0,0,30,24,0,0,7,0,11,11,12,0,27,8,11,17,24,5,20,23,20,22,26,23,9,17,29,21,2,18,0,1,18,2,27,26,9,8,14,9,3,3,11,11,23,10,0,6,5,4,3,30,2,2,2,2,3,2,0,2,0,2,1362.txt
0,0,13,0,0,0,24,0,0,7,0,6,5,29,0,26,30,5,17,24,22,30,23,20,22,26,23,6,17,8,21,2,18,0,21,18,6,19,24,9,18,0,13,0,0,0,0,0,0,13,0,9,9,11,9,29,3,28,0,8,3,3,7,0,10,1364.txt
0,0,13,0,0,30,24,0,0,7,0,6,5,29,0,27,30,5,17,24,5,20,23,20,22,26,23,19,17,29,21,2,18,0,7,18,6,19,24,9,8,14,9,15,15,11,11,11,10,1,7,6,1,1,25,29,3,28,22,3,1,1,1,7,27,1367.txt
0,0,13,0,0,30,24,0,0,30,24,11,11,12,9,27,8,11,28,19,5,12,7,10,15,2,9,14,23,23,13,2,27,13,23,29,25,26,12,27,8,14,9,15,30,12,12,26,13,14,19,20,12,14,12,6,7,6,6,19,4,8,12,13,3,1368.txt
0,0,13,0,0,0,24,0,0,7,0,6,5,29,0,26,30,5,17,24,22,30,23,20,22,26,23,6,17,8,21,2,18,0,21,18,6,19,24,9,18,0,13,0,2,0,0,0,0,9,2,9,4,3,30,29,3,28,0,3,3,3,27,2,9,1371.txt
0,0,13,0,0,0,24,0,0,7,24,6,5,29,6,26,30,5,14,5,22,30,3,29,28,26,22,6,5,8,20,2,19,24,21,18,18,19,24,9,18,0,13,0,2,6,6,2,9,22,2,9,4,3,30,29,3,28,0,3,25,30,5,19,3,1372.txt
0,0,13,0,0,27,24,0,0,7,24,6,5,29,22,23,30,5,14,19,14,12,26,26,26,26,4,19,23,5,13,2,27,13,7,18,15,19,24,9,17,20,22,10,16,1,25,11,25,0,9,8,9,11,9,6,7,6,6,8,4,4,6,1,5,1375.txt
0,0,13,0,0,0,24,0,0,7,0,6,5,29,0,26,30,5,17,24,22,30,23,20,22,26,23,6,17,8,21,2,18,0,21,6,6,18,24,6,18,0,13,0,0,0,0,0,0,0,0,9,4,3,6,22,19,27,0,3,4,5,4,0,3,1377.txt
0,0,13,0,0,0,24,0,0,7,0,6,5,29,0,26,30,5,17,24,22,30,23,20,22,26,23,6,17,8,21,2,18,0,21,18,6,19,24,9,18,0,13,0,2,0,0,0,0,0,2,9,4,3,30,29,3,28,0,5,4,5,4,2,5,1379.txt
0,13,11,0,30,18,21,23,22,4,23,18,6,27,20,28,7,10,30,16,26,2,20,19,23,28,24,27,6,23,6,25,6,6,12,16,22,30,23,19,28,23,10,24,10,8,8,26,7,27,19,22,11,13,11,26,29,19,18,21,16,7,26,30,25,1380.txt
0,0,13,0,0,0,24,0,0,7,25,11,11,22,4,26,13,20,14,4,22,30,26,26,26,26,4,6,15,8,24,8,24,28,21,19,23,11,22,20,18,0,13,0,2,6,6,2,9,6,2,9,0,0,0,29,3,28,0,1,4,8,4,14,3,1383.txt
0,0,13,0,0,0,24,0,0,7,0,11,11,12,0,26,8,11,17,24,22,30,23,20,22,26,23,3,17,3,21,2,18,0,16,18,2,27,26,9,2,2,6,2,0,0,0,0,0,9,0,2,4,3,30,2,2,2,2,3,2,3,2,2,2,1389.txt
16,0,13,0,0,30,19,5,21,7,24,30,14,2,4,27,16,4,28,27,5,20,26,26,26,26,4,13,21,29,11,17,12,9,1,18,2,27,26,9,25,14,26,15,19,11,11,11,10,15,7,6,2,2,2,2,2,2,2,3,2,17,2,13,2,1390.txt
0,0,13,0,0,0,24,0,0,7,24,6,5,29,4,26,30,5,28,4,22,30,12,12,12,26,12,6,23,8,15,0,3,19,21,18,15,19,24,2,18,0,13,0,0,2,2,2,2,0,0,9,6,11,5,29,3,28,0,7,4,8,7,13,5,1392.txt
0,0,13,0,0,0,24,0,0,7,0,6,5,29,0,26,30,5,17,24,22,30,23,20,22,26,23,6,17,8,21,2,18,0,21,18,6,19,24,9,18,0,13,0,0,0,0,0,0,1,0,9,1,1,25,29,3,28,0,5,1,1,1,0,27,1395.txt
0,0,13,0,0,0,24,0,0,7,24,6,5,29,4,26,30,5,14,4,22,30,26,26,26,26,4,6,23,8,13,2,27,13,21,18,15,19,24,9,18,0,13,0,0,2,2,2,2,13,0,9,0,0,0,29,3,28,0,1,4,8,4,1,5,1396.txt
0,0,13,0,0,0,24,0,0,7,0,6,5,29,0,26,30,5,17,24,22,30,23,20,22,26,23,6,17,8,21,2,18,0,21,18,6,19,8,9,18,0,13,0,4,0,0,0,0,9,4,9,7,4,30,29,3,28,0,5,7,13,18,7,15,1398.txt
0,0,13,0,0,0,24,0,0,7,0,6,5,29,0,26,30,5,17,24,22,30,23,20,22,26,23,6,17,8,21,2,18,0,21,18,6,19,24,9,18,0,13,0,0,0,0,0,0,1,0,9,1,1,25,29,3,28,0,5,1,1,1,0,27,1400.txt
0,0,13,0,0,25,24,0,0,7,3,11,11,0,24,23,30,5,3,19,13,20,26,26,26,26,4,9,13,14,19,8,19,24,19,6,4,20,22,6,17,17,24,14,16,21,16,23,18,14,28,30,9,6,9,22,19,27,4,8,4,0,12,15,15,1402.txt
0,0,13,0,0,0,24,0,0,7,24,11,11,12,7,26,8,11,28,6,22,30,6,6,6,26,18,26,6,12,16,2,17,18,16,18,2,27,26,9,5,5,6,20,2,6,6,10,9,0,2,2,4,3,30,2,2,2,2,3,2,3,2,30,2,1405.txt
0,0,13,0,0,0,24,0,0,7,0,6,5,29,0,26,30,5,17,24,22,30,23,20,22,26,23,6,17,8,21,2,18,0,21,18,6,19,24,9,18,0,13,0,0,0,0,0,0,0,0,9,4,3,7,29,3,28,0,5,4,3,4,0,10,1407.txt
0,0,13,0,0,0,24,0,0,7,0,6,5,29,0,26,30,5,17,24,22,30,23,20,22,26,23,6,17,8,21,0,18,0,21,18,6,19,24,21,18,0,13,0,0,0,0,0,0,0,0,9,6,11,5,29,3,28,0,7,4,3,27,0,7,1409.txt
14,0,29,15,14,10,29,12,21,26,11,29,27,11,29,6,26,22,12,27,11,26,30,11,24,8,8,27,20,22,30,29,30,12,24,27,7,22,22,15,16,30,14,12,14,21,29,19,30,27,3,4,30,21,19,25,17,20,23,30,7,26,28,15,14,1412.txt
0,0,13,0,0,0,24,0,0,7,0,6,5,29,0,26,30,5,17,24,22,30,23,20,22,26,23,6,17,8,21,2,18,0,21,18,6,19,24,9,18,0,13,0,0,0,0,0,0,1,0,9,1,1,25,29,3,28,0,5,1,1,1,0,27,1416.txt
0,0,13,0,0,0,24,0,0,7,0,6,5,29,0,26,30,5,17,24,22,30,23,20,22,26,23,6,17,8,21,2,18,0,21,19,6,19,24,9,18,0,13,0,0,0,0,0,0,13,0,9,9,11,9,29,3,28,0,8,4,5,4,0,7,1418.txt
0,0,13,0,0,0,24,0,0,7,0,6,5,29,0,26,30,5,17,24,22,30,23,20,22,26,23,6,17,8,21,2,18,0,21,18,6,19,24,9,18,0,13,0,0,0,0,0,0,1,0,9,1,1,25,29,3,28,0,5,1,1,1,2,27,1421.txt
0,0,13,0,0,0,24,0,0,7,25,6,5,29,4,26,30,5,28,4,22,30,26,26,26,26,4,6,24,8,13,2,27,13,21,19,18,19,24,9,18,0,13,0,0,2,2,2,2,9,0,9,6,11,5,29,3,28,0,8,4,8,6,13,15,1422.txt
0,0,13,0,0,0,24,0,0,7,0,6,5,29,0,26,30,5,17,24,22,30,23,20,22,26,23,6,17,8,21,2,18,0,21,18,6,19,24,9,18,0,13,0,0,0,0,0,0,1,0,9,1,1,25,29,3,28,0,5,1,1,1,0,27,1425.txt
0,0,13,0,0,0,24,0,0,7,0,6,5,29,0,26,30,5,17,24,22,30,23,20,22,26,23,6,17,8,21,2,18,0,21,18,6,19,24,9,18,0,13,0,0,0,0,0,0,0,0,9,4,3,30,29,3,28,0,13,4,5,4,0,5,1427.txt
0,0,13,0,0,0,24,0,0,7,0,6,5,29,0,26,30,5,17,24,22,30,23,20,22,26,23,6,17,8,21,2,18,0,21,18,6,19,24,9,18,0,13,0,0,0,0,0,0,0,0,9,4,3,30,29,3,28,0,3,4,3,4,0,7,1429.txt
0,0,13,11,0,30,24,0,0,30,24,11,23,22,22,27,13,20,28,19,5,23,26,26,26,26,4,9,23,29,13,2,27,13,2,29,21,11,21,27,9,9,10,15,19,11,11,12,10,15,28,30,10,11,10,25,25,9,16,22,8,8,5,18,28,1431.txt
0,0,13,0,0,0,24,0,0,7,24,11,11,12,4,26,8,11,28,4,22,30,26,26,26,26,4,6,23,8,13,2,27,13,16,18,11,11,23,9,2,2,6,2,0,2,2,2,2,30,0,2,25,5,21,20,7,13,26,3,4,3,5,13,5,1433.txt
0,0,13,0,0,0,24,0,0,7,0,6,5,29,0,26,30,5,17,24,22,30,23,20,22,26,23,6,17,8,21,8,18,0,16,19,6,19,24,9,2,2,6,2,0,0,0,0,0,9,0,11,0,0,0,6,7,6,6,1,7,8,12,7,15,1434.txt
0,0,13,0,0,0,24,0,0,7,0,6,5,29,0,26,30,5,17,24,22,30,23,20,22,26,23,6,17,8,21,8,18,0,16,19,6,19,24,9,2,2,6,2,0,0,0,0,0,9,0,11,0,0,0,6,7,6,6,1,7,8,12,7,15,1436.txt
0,0,13,0,0,0,24,0,0,30,24,11,11,22,4,26,13,12,14,4,22,30,26,26,26,26,4,6,23,8,13,2,27,13,4,7,25,26,0,3,2,2,29,2,0,2,2,2,2,29,0,11,0,0,0,6,7,6,6,1,7,4,12,15,3,1439.txt
0,0,13,0,0,0,24,0,0,7,0,6,5,29,0,26,30,5,17,24,22,30,23,20,22,26,23,6,17,8,21,2,18,0,21,18,6,19,24,9,18,0,13,0,0,0,0,0,0,0,0,9,6,11,5,29,3,28,0,8,4,3,5,0,5,1441.txt
0,0,13,0,0,0,24,0,0,7,0,6,5,29,0,26,30,5,17,24,22,30,23,20,22,26,23,3,17,3,21,2,18,0,16,18,6,19,24,9,2,2,6,2,0,0,0,0,0,0,0,2,4,3,30,12,7,13,1,3,4,3,5,0,5,1442.txt
0,0,13,0,0,0,25,0,0,30,24,11,11,14,7,26,13,13,14,6,22,30,26,26,26,26,4,3,15,3,5,8,5,5,16,29,21,16,23,28,5,5,6,4,2,6,6,2,12,12,2,2,0,0,0,25,29,13,16,1,4,2,4,1,5,1444.txt
0,0,13,0,0,0,24,0,0,7,24,6,5,29,4,26,30,5,14,4,22,30,26,26,26,26,4,6,23,8,13,2,27,13,21,19,18,19,17,9,18,0,13,0,2,6,6,2,9,13,2,9,9,11,9,29,3,28,0,8,4,4,5,1,3,1446.txt
0,0,13,0,0,0,24,0,0,7,24,6,5,29,4,26,30,5,28,4,22,30,26,26,26,26,4,6,15,8,20,8,19,24,21,18,14,19,24,20,18,0,13,0,2,6,6,2,9,13,2,9,9,11,9,29,3,28,0,8,4,8,4,13,5,1448.txt
0,0,13,0,0,0,24,0,0,7,0,6,5,29,0,26,30,5,17,24,22,30,23,20,22,26,23,6,17,8,21,2,18,0,21,18,6,19,24,9,18,0,13,0,0,0,0,0,0,1,0,9,1,1,25,29,3,28,0,5,1,1,1,0,27,1451.txt
0,0,13,0,0,0,24,0,0,7,0,6,5,29,0,26,30,5,17,24,22,30,23,20,22,26,23,6,17,8,21,2,18,0,21,18,6,19,24,9,18,0,13,0,0,0,0,0,0,1,0,9,1,1,25,29,3,28,0,5,1,1,1,0,27,1453.txt
0,0,13,0,0,0,24,0,0,7,24,6,5,29,6,26,30,5,28,5,22,30,6,6,6,26,12,6,5,8,20,2,19,24,21,18,18,19,24,9,18,0,13,0,2,6,6,10,9,13,2,9,28,21,19,29,3,28,0,3,25,18,10,17,30,1454.txt
5,0,13,3,0,30,30,30,30,30,3,13,13,6,2,27,12,1,3,25,5,15,2,2,3,5,7,4,7,28,4,17,12,9,1,7,2,27,26,25,8,14,9,1,1,11,11,21,10,0,22,19,3,5,21,2,2,2,2,18,2,4,2,1,2,1456.txt
0,0,13,0,0,0,24,0,0,7,3,6,5,29,4,26,30,5,3,4,22,30,26,26,26,26,4,6,13,8,16,2,17,18,21,18,18,19,17,9,18,0,13,0,0,2,2,2,2,9,0,9,10,11,26,29,3,28,0,8,7,14,12,15,3,1458.txt
0,0,13,0,0,0,24,0,0,30,13,6,5,29,4,26,30,5,14,4,22,30,27,27,27,26,4,26,5,12,20,16,19,24,16,29,14,19,24,28,14,15,6,8,4,26,30,2,6,9,4,2,9,11,9,13,29,10,16,8,5,8,5,17,25,1460.txt
0,0,13,0,0,0,24,0,0,7,0,6,5,29,0,26,30,5,17,24,22,30,23,20,22,26,23,6,17,8,21,2,18,0,21,18,6,19,24,9,18,0,13,0,0,0,0,0,0,0,0,9,12,26,12,29,3,28,0,5,4,5,4,0,7,1462.txt
0,0,13,0,0,0,24,0,0,7,0,6,5,29,0,26,30,5,17,24,22,30,23,20,22,26,23,6,17,8,21,2,18,0,21,18,6,19,24,9,18,0,13,0,0,0,0,0,0,0,0,9,4,3,30,29,3,28,0,5,17,5,27,0,7,1465.txt
0,0,13,0,0,0,24,0,0,7,0,6,5,29,0,26,30,5,17,24,22,30,23,20,22,26,23,6,17,8,21,2,18,21,21,18,6,19,24,9,18,0,13,0,0,0,27,28,27,1,0,9,1,1,25,29,3,28,7,5,1,1,1,7,27,1467.txt
0,0,13,0,0,0,24,0,0,7,0,6,5,29,0,26,30,5,17,24,22,30,23,20,22,26,23,6,17,8,21,2,18,0,21,18,6,19,24,9,18,0,13,0,0,0,0,0,0,1,0,9,1,1,25,29,3,28,0,5,1,1,1,0,27,1469.txt
5,0,13,15,0,0,6,5,5,7,3,29,27,2,29,26,17,27,3,29,22,30,21,22,20,2,14,6,20,8,27,11,9,11,21,15,15,10,24,26,18,0,13,0,0,2,2,16,2,13,0,9,28,21,19,29,3,28,0,21,4,18,27,1,5,1470.txt
5,0,13,3,24,30,30,30,30,30,24,23,22,6,2,27,29,1,24,15,5,20,2,2,8,5,7,23,7,17,4,17,12,9,12,29,8,4,23,27,9,9,10,3,3,11,11,26,10,0,19,20,3,5,21,26,21,15,18,18,5,3,0,17,12,1473.txt
0,0,13,0,0,0,24,0,0,7,0,6,5,29,0,26,30,5,17,24,22,30,23,20,22,26,23,6,17,8,21,2,18,0,21,18,6,19,24,9,18,0,13,0,0,0,0,0,0,0,0,9,4,3,30,29,3,28,0,5,4,3,7,0,10,1475.txt
0,0,13,0,0,0,25,0,0,7,0,6,5,30,0,26,27,5,17,24,22,24,23,20,22,27,23,6,17,8,21,8,18,0,21,19,6,23,10,2,18,0,13,0,2,0,0,0,0,6,2,9,9,11,9,29,3,28,0,4,4,4,4,0,7,1477.txt
0,0,13,0,0,30,24,0,0,30,0,11,11,19,0,27,13,16,17,24,18,20,23,20,22,26,23,9,17,29,21,2,18,0,7,29,22,11,23,27,8,14,9,15,13,11,11,23,10,0,28,30,6,11,5,19,25,10,15,7,3,8,18,7,5,1480.txt
16,0,2,23,23,1,1,1,1,16,22,1,1,1,1,20,1,21,22,1,16,19,1,1,1,1,2,6,2,8,1,1,1,1,21,18,6,10,24,9,18,0,13,0,4,0,0,0,0,1,4,9,1,1,25,29,3,28,0,5,1,1,1,0,27,1482.txt
0,0,13,0,0,0,24,0,0,7,0,6,5,29,0,26,30,5,17,24,22,30,23,20,22,26,23,3,17,3,21,0,18,0,16,18,6,19,24,9,2,2,6,2,0,0,0,0,0,0,0,2,4,3,30,2,2,2,2,3,2,3,2,0,2,1484.txt
0,0,13,0,0,30,24,0,0,30,24,11,11,12,4,27,8,11,28,4,5,23,26,26,26,26,4,9,23,29,13,2,27,13,1,29,21,11,7,27,8,14,9,3,3,12,12,12,13,15,7,6,4,3,30,6,7,6,6,3,7,14,5,13,13,1487.txt
0,0,13,0,0,0,24,0,0,7,24,6,5,29,4,26,30,5,28,4,22,30,26,26,26,26,4,6,23,8,13,2,27,13,21,18,15,19,24,9,18,0,13,0,0,2,2,2,2,13,0,9,8,11,8,29,3,28,0,8,4,4,5,13,5,1490.txt
0,0,13,0,0,0,24,0,0,7,0,6,5,29,0,26,30,5,17,24,22,30,23,20,22,26,23,6,17,8,21,2,18,0,21,18,6,19,24,9,18,0,13,0,0,0,0,0,0,0,0,9,6,11,5,29,3,28,0,8,4,3,5,0,5,1491.txt
23,0,29,15,22,10,23,10,26,10,30,30,14,25,30,25,16,4,13,25,10,10,2,17,14,19,26,3,9,4,11,26,29,26,16,12,26,28,21,13,10,11,6,2,27,20,10,8,22,29,25,2,12,27,12,12,7,9,1,16,7,19,18,13,16,1494.txt
16,0,4,23,16,1,30,30,30,15,29,13,13,2,14,7,12,27,16,29,1,10,21,22,3,1,9,6,20,8,27,11,9,11,21,18,14,10,24,22,18,0,13,0,0,2,2,16,2,13,0,9,29,21,19,29,3,28,0,26,4,6,4,13,5,1497.txt
0,0,13,0,0,0,24,0,0,7,0,6,5,29,0,26,30,5,17,24,22,30,23,20,22,26,23,6,17,8,21,2,18,0,21,18,6,19,24,9,18,0,13,0,0,0,0,0,0,1,0,9,1,1,25,29,3,28,0,5,1,1,1,0,27,1499.txt
0,0,13,0,0,0,24,0,0,7,0,6,5,29,0,26,30,5,17,24,22,30,23,20,22,26,23,6,17,8,21,2,18,0,21,18,6,19,24,9,18,0,13,0,0,0,0,0,0,1,0,9,1,1,25,29,3,28,0,1,1,1,1,0,27,1502.txt
0,0,13,0,0,30,24,0,0,30,24,11,11,19,4,27,13,16,28,4,18,23,26,26,26,26,4,9,5,29,16,8,17,18,1,29,4,15,7,27,8,14,9,15,13,11,11,12,10,14,28,30,8,11,8,19,7,21,1,8,4,8,28,13,13,1504.txt
0,24,13,0,0,27,24,0,0,30,24,11,11,12,6,10,8,11,14,5,25,12,26,26,26,26,4,14,5,24,5,2,5,5,28,15,21,16,25,15,17,30,23,3,3,1,19,26,28,14,30,24,12,27,12,25,26,29,16,27,25,6,27,17,3,1505.txt
0,0,13,0,0,0,24,0,0,7,0,6,5,29,0,26,30,5,17,24,22,30,23,20,22,26,23,6,17,8,21,2,18,0,21,19,6,19,17,9,18,0,13,0,0,0,0,0,0,1,0,9,1,1,25,29,3,28,0,5,1,1,1,0,27,1507.txt
0,0,13,0,0,0,24,0,0,7,0,6,5,29,1,26,30,5,17,24,22,30,1,1,1,1,2,6,17,8,21,2,18,0,21,18,6,19,24,9,18,0,13,0,0,0,0,0,0,0,0,9,2,2,2,29,3,28,0,5,4,3,4,0,3,1509.txt
0,20,13,27,0,25,24,0,0,7,24,6,5,29,6,23,30,5,28,5,13,20,6,6,6,26,12,9,5,14,16,19,17,18,2,18,18,19,24,9,9,9,10,3,3,11,11,23,10,0,7,6,4,3,30,29,3,28,4,3,5,3,5,17,5,1511.txt
0,0,13,0,0,30,24,0,0,30,24,11,11,15,4,27,13,15,14,4,18,12,26,26,26,26,4,19,23,29,14,8,15,14,5,29,21,17,23,27,8,14,9,15,30,12,12,11,13,0,8,7,8,11,8,12,7,13,1,10,4,8,5,1,3,1513.txt
0,0,13,0,0,0,24,0,0,7,24,6,5,29,4,26,30,5,15,4,22,30,26,26,26,26,4,3,23,3,13,2,27,13,16,29,18,19,24,27,2,2,6,2,0,2,2,2,2,0,0,2,4,3,30,12,7,10,1,3,4,8,5,13,5,1515.txt
0,0,13,0,0,0,24,0,0,7,17,6,5,29,0,26,30,5,17,24,22,30,23,20,22,26,23,6,17,8,21,2,18,0,21,18,6,19,24,9,18,0,18,0,0,0,0,0,0,8,0,13,4,3,30,29,3,28,0,5,4,14,23,2,13,1518.txt
0,0,13,0,0,25,24,0,0,30,3,11,11,22,6,23,13,20,3,5,17,23,26,26,26,26,4,18,5,26,6,8,6,6,7,25,7,22,22,7,16,16,23,3,3,1,24,12,17,13,28,30,9,11,9,25,29,13,16,4,4,13,10,1,7,1519.txt
0,0,13,0,0,0,24,0,0,7,24,6,5,29,4,26,30,5,28,4,22,30,27,27,27,26,4,3,23,3,13,2,27,13,16,18,14,19,24,9,2,2,6,2,0,2,2,2,2,0,0,2,4,3,30,20,7,13,1,3,4,8,4,13,5,1521.txt
0,0,13,0,0,0,24,0,0,7,0,6,5,29,0,26,30,5,17,24,22,30,23,20,22,26,23,6,17,8,21,2,18,0,21,18,6,19,24,9,18,0,13,0,0,0,0,0,0,0,0,9,4,3,30,29,3,28,0,5,4,3,23,0,5,1523.txt
0,0,13,0,0,0,24,0,0,7,24,6,5,29,4,26,30,5,28,4,22,30,26,26,26,26,4,6,23,8,13,2,27,13,21,18,15,19,24,9,18,0,13,0,0,2,2,2,2,12,0,9,6,8,5,29,3,28,0,5,8,8,7,9,5,1526.txt
0,20,13,30,0,0,24,0,0,7,0,6,5,29,0,26,30,5,17,24,22,30,23,20,22,26,23,6,17,8,21,19,18,0,21,18,6,19,17,9,18,0,13,0,2,0,0,0,0,22,2,9,7,4,6,29,3,28,0,3,3,13,10,7,11,1528.txt
23,0,13,3,0,25,30,30,30,7,3,13,13,2,14,12,12,4,3,29,25,23,21,16,8,12,25,28,9,23,27,11,9,11,23,22,30,20,21,15,21,28,24,14,30,21,29,17,25,5,21,21,12,14,12,20,7,23,1,26,4,28,16,15,15,1529.txt
0,0,13,0,0,0,24,0,0,30,24,11,11,12,4,26,8,11,28,4,5,30,26,26,26,26,4,9,23,29,13,2,27,13,1,29,2,27,26,27,8,14,9,1,1,11,11,23,10,0,7,6,4,3,30,2,2,2,2,3,2,0,2,13,2,1532.txt
0,24,13,0,0,0,24,0,0,7,24,6,5,29,6,26,30,5,28,5,22,30,12,12,19,26,12,6,13,8,20,2,19,24,21,18,18,19,17,9,18,0,13,0,2,6,6,2,22,13,2,9,9,11,9,29,3,28,0,8,30,13,14,28,5,1534.txt
5,0,4,3,16,1,30,30,30,15,29,13,13,2,17,7,12,4,16,29,12,10,21,16,24,2,28,6,9,8,27,11,9,11,16,15,21,16,22,13,5,5,6,8,4,26,30,16,9,13,4,29,12,26,12,13,29,13,16,21,9,6,0,17,5,1536.txt
0,0,13,0,0,0,24,0,0,7,24,6,5,29,4,26,30,5,28,4,22,30,26,26,26,26,4,3,23,3,15,8,3,14,16,29,14,19,24,27,2,2,6,2,0,2,2,2,2,13,0,11,6,11,5,19,7,12,1,8,4,8,4,13,30,1538.txt
0,0,13,0,0,0,24,0,0,7,0,6,5,29,0,26,30,5,17,24,22,30,23,20,22,26,23,6,17,8,21,2,18,0,21,18,6,19,24,9,18,0,13,0,0,0,0,0,0,1,0,9,1,1,25,29,3,28,0,5,1,1,1,0,27,1540.txt
0,0,13,0,0,0,24,0,0,7,0,6,5,29,0,26,30,5,17,24,22,30,23,20,22,26,23,6,17,8,21,2,18,0,21,18,6,19,24,9,18,0,13,0,0,0,0,0,0,1,0,9,1,1,25,29,3,28,0,5,1,1,1,0,27,1543.txt
0,0,13,0,0,0,24,0,0,7,0,6,5,29,0,26,30,5,17,24,22,30,23,20,22,26,23,6,17,8,21,2,18,0,21,18,6,19,24,9,18,0,13,0,2,0,0,0,0,13,2,9,4,3,30,29,3,28,0,3,3,13,7,0,10,1545.txt
16,0,4,15,22,1,9,11,28,15,26,24,27,2,29,17,16,27,16,25,1,27,2,22,3,7,7,3,21,3,11,7,7,8,16,15,2,27,26,13,2,2,6,2,0,2,2,2,2,13,0,2,2,2,2,2,2,2,2,29,2,26,2,13,2,1546.txt
0,0,13,0,0,30,24,0,0,7,0,11,11,12,0,27,8,11,17,24,5,20,23,20,22,26,23,7,17,29,21,2,18,0,2,18,11,11,23,9,9,9,10,14,13,11,11,4,10,0,7,6,4,3,30,20,13,29,16,3,3,8,0,0,5,1548.txt
0,20,13,27,0,0,24,0,0,7,0,6,5,29,0,26,30,5,17,24,22,30,23,20,22,26,23,6,17,8,21,19,18,0,21,18,6,19,17,9,18,0,13,0,4,0,0,0,0,9,4,9,7,4,6,29,3,28,0,3,3,0,10,7,15,1551.txt
0,0,13,0,0,0,24,0,0,7,0,6,5,29,0,26,30,5,17,24,22,30,23,20,22,26,23,6,17,8,21,2,18,0,21,18,6,19,24,9,18,0,13,0,0,0,0,0,0,0,0,9,4,3,30,29,3,28,0,5,4,5,4,0,5,1552.txt
0,0,13,0,0,0,24,0,0,7,0,6,5,29,0,26,30,5,17,24,22,30,23,20,22,26,23,6,17,8,21,2,18,0,21,18,6,19,24,9,18,0,13,0,0,0,0,0,0,1,0,9,1,1,25,29,3,28,0,5,1,1,1,0,27,1556.txt
0,0,13,0,0,0,24,0,0,7,0,6,5,29,0,26,30,5,17,24,22,30,23,20,22,26,23,6,17,8,21,2,18,0,21,0,6,1,24,0,18,0,13,0,2,0,0,0,0,1,2,9,1,1,25,0,0,0,0,5,1,1,1,0,27,1558.txt
0,0,13,0,0,30,25,0,0,30,14,0,0,22,4,27,9,20,28,4,6,15,26,26,26,27,4,7,4,29,15,8,3,14,2,29,21,17,23,28,4,4,4,1,1,12,12,4,13,0,9,8,9,8,9,12,7,13,26,10,4,8,4,13,12,1561.txt
0,0,13,0,0,0,24,0,0,7,17,6,5,29,0,26,30,5,17,24,22,30,23,20,22,26,23,6,17,8,21,2,18,0,21,18,6,19,24,9,18,0,18,0,0,0,0,0,0,1,0,13,1,1,25,29,3,28,0,5,1,1,1,0,27,1563.txt
0,0,13,0,0,0,24,0,0,7,0,6,5,29,0,26,30,5,17,24,22,30,23,20,22,26,23,6,17,8,21,2,18,0,21,19,6,19,24,9,18,0,13,0,0,0,0,0,0,1,0,9,1,1,25,29,3,28,0,5,1,1,1,0,27,1565.txt
0,0,13,0,0,0,24,0,0,7,0,6,5,29,0,26,30,5,17,24,22,30,23,20,22,26,23,6,17,8,21,2,18,0,21,18,6,19,24,9,18,0,13,0,0,0,0,0,0,1,0,9,1,1,25,29,3,28,0,5,1,1,1,7,27,1567.txt
0,0,13,0,0,0,24,0,0,30,0,11,11,12,0,26,30,5,17,24,22,30,23,20,22,26,23,3,17,3,21,2,18,0,3,29,2,27,26,27,2,2,5,2,0,0,0,0,0,0,0,2,4,3,30,2,2,2,2,3,2,3,2,0,2,1570.txt
0,0,13,0,0,30,24,0,0,30,24,0,0,12,3,27,8,11,28,3,5,15,6,6,6,26,18,7,15,29,20,2,19,24,2,29,22,16,23,27,9,9,10,1,1,11,11,4,10,13,7,6,4,3,30,11,18,1,24,3,5,30,13,11,11,1572.txt
0,0,13,0,0,0,24,0,0,7,24,6,5,29,22,26,30,5,14,19,22,30,26,26,26,26,4,6,6,8,16,2,17,18,16,18,14,19,24,9,2,2,29,2,0,2,2,2,2,0,0,2,9,11,9,6,7,6,6,4,4,8,4,1,7,1574.txt
0,0,13,0,0,0,24,0,0,7,0,6,5,29,0,26,30,5,17,24,22,30,23,20,22,26,23,6,17,8,21,2,18,0,21,18,6,19,24,9,18,0,13,0,0,0,0,0,0,0,0,9,6,10,5,29,3,28,0,5,4,8,7,0,10,1581.txt
0,0,13,0,0,0,24,0,0,7,0,6,5,29,0,26,30,5,17,24,22,30,23,20,22,26,23,6,17,8,21,2,18,0,21,6,6,18,24,6,18,0,13,0,0,0,0,0,0,0,0,9,4,3,7,29,3,28,0,5,4,5,5,0,3,1583.txt
0,24,13,27,0,25,24,0,0,30,12,11,11,12,6,23,8,11,23,5,4,23,6,6,6,26,18,18,5,29,22,2,22,27,2,1,22,16,19,17,9,9,10,5,6,11,11,12,10,5,7,6,4,3,6,11,18,19,24,3,16,13,27,30,6,1585.txt
16,0,13,0,0,0,30,30,30,7,24,13,13,2,4,26,12,4,28,15,22,30,6,6,6,16,18,3,21,3,4,7,7,11,16,18,14,8,24,9,2,2,6,2,0,2,2,2,2,0,0,2,2,2,2,12,7,1,1,29,4,6,7,13,11,1587.txt
0,0,13,0,0,0,24,0,0,30,24,11,11,12,4,26,30,5,28,4,22,30,26,26,26,26,4,3,23,3,13,2,27,13,16,29,4,11,23,27,2,2,6,2,0,2,2,2,2,0,0,2,4,3,30,19,7,13,26,3,4,8,4,13,5,1589.txt
0,0,13,0,0,0,24,0,0,7,0,6,5,29,0,26,30,5,17,24,22,30,23,20,22,26,23,6,17,8,21,2,18,0,21,6,6,18,24,6,18,0,13,0,0,0,0,0,0,1,0,9,1,1,25,22,19,27,0,3,1,1,1,7,27,1590.txt
0,0,13,0,0,0,24,0,0,7,0,0,0,12,0,26,8,11,17,24,22,30,23,20,22,26,23,3,17,3,21,2,18,0,16,18,2,27,26,9,2,2,6,2,0,0,0,0,0,0,0,2,4,3,30,2,2,2,2,3,2,3,2,0,2,1594.txt
0,0,13,0,0,0,24,0,0,7,0,6,5,29,0,26,30,5,17,24,22,30,23,20,22,26,23,6,17,8,21,2,18,0,21,18,6,19,24,9,18,0,13,0,0,0,0,0,0,1,0,9,1,1,25,29,3,28,0,5,1,1,1,0,27,1596.txt
0,0,13,0,0,0,24,0,0,7,0,6,5,29,0,26,30,5,17,24,22,30,23,20,22,26,23,6,17,8,21,0,18,0,21,18,6,19,24,9,18,0,13,0,0,0,0,0,0,1,0,9,1,1,25,29,3,28,0,5,1,1,1,0,27,1598.txt
0,0,13,0,0,0,24,0,0,7,0,6,5,29,0,26,30,5,17,24,22,30,23,20,22,26,23,6,17,8,21,2,18,0,21,18,6,19,24,9,18,0,13,0,0,0,0,0,0,1,0,9,1,1,25,29,3,28,0,5,1,1,1,0,27,1600.txt
0,0,13,0,0,0,24,0,0,30,24,0,0,12,4,26,8,11,28,4,5,30,6,6,6,26,24,7,5,29,6,2,6,6,2,29,21,16,23,27,9,9,10,3,3,12,12,4,13,0,7,6,4,3,30,13,21,1,16,3,5,8,0,17,12,1602.txt
0,0,13,0,0,0,24,0,0,7,0,6,5,29,0,26,30,5,17,24,22,30,23,20,22,26,23,6,17,8,21,2,18,0,21,18,6,19,24,9,18,0,13,0,0,0,0,0,0,1,0,9,1,1,25,29,3,28,0,3,1,1,1,0,27,1604.txt
0,0,13,0,0,30,24,0,0,30,24,11,11,12,4,27,8,11,14,4,5,23,26,26,26,26,4,17,23,29,13,2,27,13,7,29,21,11,23,27,8,14,9,3,3,11,11,12,10,0,6,5,4,3,30,19,7,13,26,3,4,8,5,1,5,1605.txt
0,0,13,0,0,27,24,0,0,7,24,6,5,29,4,10,30,5,28,4,25,23,26,26,26,26,4,18,23,29,13,2,27,13,7,18,15,19,24,9,8,14,9,15,19,12,12,12,13,27,7,6,4,3,30,20,7,9,1,3,4,3,5,13,15,1608.txt
0,0,13,0,0,0,24,0,0,7,0,6,5,29,0,26,30,5,17,24,22,30,23,20,22,26,23,6,17,8,21,2,18,0,16,18,6,19,24,9,2,2,6,2,0,0,0,0,0,0,0,2,4,3,30,20,7,13,1,3,4,3,6,22,5,1610.txt
0,0,13,0,0,30,25,0,0,7,14,11,11,19,3,27,13,30,28,3,6,20,12,12,12,26,12,7,15,29,16,8,17,18,2,28,21,16,23,21,4,4,4,1,1,11,11,4,10,0,1,1,9,8,9,11,21,19,10,8,5,30,0,17,5,1612.txt
0,0,13,0,0,0,24,0,0,7,0,6,5,29,0,26,30,5,17,24,22,30,23,20,22,26,23,6,17,8,21,2,18,0,21,18,6,19,24,9,18,0,13,0,0,0,0,0,0,1,0,9,1,1,25,29,3,28,0,5,1,1,1,0,27,1615.txt
0,0,13,0,0,0,24,0,0,7,3,6,5,29,4,26,30,5,3,4,22,30,26,26,26,26,4,3,4,3,13,8,27,13,16,19,15,19,24,9,5,5,6,2,2,6,6,2,9,6,2,11,9,8,9,12,7,29,26,8,4,8,4,1,7,1616.txt
0,0,13,0,0,0,24,0,0,7,0,6,5,29,0,26,30,5,17,24,22,30,23,20,22,26,23,6,17,8,21,2,18,0,21,18,6,19,24,9,18,0,13,0,0,0,0,0,0,0,0,9,4,3,30,29,3,28,0,5,4,5,4,0,5,1618.txt
0,0,13,0,0,0,24,0,0,7,24,11,11,12,4,26,8,11,28,4,22,30,26,26,26,26,4,3,23,3,13,2,27,13,16,18,7,11,22,9,2,2,6,20,0,2,2,2,2,13,0,27,4,3,30,25,6,21,10,3,4,18,14,13,5,1622.txt
0,0,13,0,0,0,24,0,0,7,13,6,5,29,4,26,30,5,28,4,22,30,26,26,26,26,4,6,4,8,15,9,3,14,21,19,14,19,24,20,18,0,13,0,0,2,2,2,2,13,0,9,6,8,5,3,3,3,0,8,4,8,4,13,5,1623.txt
0,0,13,0,0,0,24,0,0,7,0,6,5,29,0,26,30,5,17,24,22,30,23,20,22,26,23,6,17,8,21,2,18,0,21,18,6,19,24,9,18,0,13,0,0,0,0,0,0,1,0,9,1,1,25,29,3,28,0,5,1,1,1,0,27,1626.txt
0,0,13,0,0,30,25,0,0,30,13,0,0,19,4,27,9,16,28,4,18,15,26,26,26,26,4,7,4,29,15,0,3,19,2,29,21,17,23,28,7,14,8,1,1,11,11,4,10,12,9,8,6,8,5,12,7,13,26,8,4,8,4,13,5,1629.txt
0,0,13,0,0,0,24,0,0,7,0,6,5,29,0,26,30,5,17,24,22,30,23,20,22,26,23,3,17,3,21,2,18,0,16,18,6,19,24,9,2,2,6,2,0,0,0,0,0,0,0,2,4,3,30,2,2,2,2,3,2,3,2,0,2,1631.txt
0,0,13,0,0,0,24,0,0,7,0,6,5,29,0,26,30,5,17,24,22,30,23,20,22,26,23,6,17,8,21,2,18,0,16,29,6,19,24,27,2,2,6,20,0,0,0,0,0,13,0,29,9,11,9,25,26,13,10,4,3,8,5,0,5,1632.txt
0,0,13,0,0,30,24,0,0,30,24,11,28,22,22,27,13,20,28,19,5,15,26,26,26,26,4,7,23,29,13,8,27,13,7,29,21,11,23,27,8,14,9,1,1,12,12,4,13,12,7,6,9,11,9,12,7,13,1,10,4,8,4,13,5,1637.txt
0,0,13,0,0,0,24,0,0,7,24,11,11,12,4,26,8,11,28,4,22,30,6,6,6,26,18,3,23,3,13,2,27,13,16,29,21,11,23,27,5,5,6,4,2,6,6,2,9,0,2,2,4,3,30,25,21,14,10,3,5,8,5,17,12,1639.txt
16,0,13,23,0,0,1,1,1,7,0,1,1,1,1,26,1,21,17,1,22,30,1,1,1,1,2,6,2,8,1,1,1,1,21,18,6,8,17,9,18,0,13,0,8,0,0,0,0,6,26,9,18,21,20,4,4,4,0,5,7,5,5,0,7,1641.txt
0,0,13,0,0,30,24,0,0,7,0,11,11,12,0,27,8,11,17,24,5,20,23,20,22,26,23,4,17,29,21,2,18,0,2,18,2,27,26,9,9,9,10,1,1,11,11,4,10,0,7,6,2,2,2,2,2,2,2,3,2,3,2,0,2,1643.txt
0,0,13,0,0,30,24,0,0,30,24,11,11,12,4,27,30,5,28,4,5,12,26,26,26,26,4,19,23,29,13,8,27,13,7,29,7,11,23,27,8,14,9,24,10,12,12,11,13,12,7,6,4,3,30,12,7,13,26,3,4,8,4,13,7,1645.txt
0,0,13,0,0,0,24,0,0,7,0,11,11,19,0,26,13,16,17,24,22,30,23,20,22,26,23,3,17,3,21,0,18,0,16,18,2,27,26,20,2,2,6,2,0,0,0,0,0,0,0,2,6,11,5,2,2,2,2,7,2,3,2,0,2,1647.txt
0,0,13,0,0,30,25,0,0,30,13,6,5,29,4,27,30,5,28,4,6,23,26,26,26,26,4,18,4,29,15,8,16,14,19,29,15,19,24,28,16,30,23,10,18,1,24,12,28,13,28,30,9,11,9,25,26,10,16,4,4,8,14,13,11,1650.txt
0,0,13,0,0,0,24,0,0,7,0,6,5,29,0,26,30,5,17,24,22,30,23,20,22,26,23,6,17,8,21,2,18,0,21,18,6,19,24,9,18,0,13,0,0,0,0,0,0,30,0,9,4,3,30,29,3,28,0,5,4,8,5,0,5,1652.txt
0,0,13,0,0,0,24,0,0,7,18,6,5,29,0,26,30,5,17,24,22,30,23,20,22,26,23,6,17,8,21,2,18,0,21,18,6,19,24,9,18,0,18,0,0,0,0,0,0,1,0,13,1,1,25,29,3,28,0,5,1,1,1,0,27,1654.txt
0,0,13,0,0,0,24,0,0,7,0,6,5,29,0,26,30,5,17,24,22,30,23,20,22,26,23,6,17,8,21,0,18,0,16,18,6,19,24,20,2,2,6,2,0,0,0,0,0,0,0,2,6,11,5,12,7,13,26,7,4,8,4,0,5,1655.txt
0,0,13,0,0,0,24,0,0,7,24,11,11,12,4,26,8,11,28,4,22,30,26,26,26,26,4,3,23,3,13,2,27,13,16,29,21,11,21,27,2,2,6,2,0,2,2,2,2,9,0,2,4,3,30,12,7,11,1,3,4,8,23,13,15,1657.txt
0,0,13,0,0,0,24,0,0,7,24,6,5,29,4,26,30,5,28,4,22,30,12,12,19,26,12,6,23,8,13,0,27,13,21,18,15,19,24,2,18,0,13,0,0,2,2,6,2,1,0,9,1,1,25,29,3,28,0,8,1,1,1,18,27,1660.txt
0,0,13,0,0,30,24,0,0,7,24,11,11,12,4,27,8,11,14,4,5,23,26,26,26,26,4,18,13,29,16,2,17,18,7,18,23,11,23,9,25,14,26,21,13,11,11,12,10,27,6,5,4,3,30,6,25,6,6,3,8,4,12,18,20,1662.txt
0,0,13,0,0,0,24,0,0,7,24,0,0,12,4,26,30,5,28,4,22,30,26,26,26,26,4,3,23,3,13,2,27,13,16,18,4,11,23,9,2,2,6,2,0,2,2,2,2,13,0,2,4,3,30,19,7,13,1,3,4,8,4,13,5,1663.txt
0,0,13,0,0,0,24,0,0,7,24,6,5,29,4,26,30,5,14,4,22,30,26,26,26,26,4,6,23,8,13,2,27,13,21,0,14,1,24,0,18,0,13,0,0,2,2,2,2,0,0,9,9,6,9,0,0,0,0,8,4,4,4,1,5,1666.txt
0,0,13,0,0,0,24,0,0,7,0,6,5,29,0,26,30,5,17,24,22,30,23,20,22,26,23,6,17,8,21,2,18,0,21,18,6,19,24,9,18,0,13,0,0,0,0,0,0,3,0,9,4,3,30,29,3,28,0,5,4,3,5,0,15,1667.txt
0,0,13,0,0,0,24,0,0,7,0,6,5,29,0,26,30,5,17,24,22,30,23,20,22,14,23,6,17,8,21,2,18,0,21,18,6,19,24,9,18,0,13,0,0,0,0,0,0,1,0,9,1,1,25,29,3,28,0,5,1,1,1,0,27,1669.txt
0,0,13,0,0,0,24,0,0,7,0,6,5,29,0,26,30,5,17,24,22,30,23,20,22,26,23,6,17,8,21,2,18,0,21,18,6,19,24,9,18,0,13,0,0,0,0,0,0,1,0,9,1,1,25,29,3,28,0,5,1,1,1,0,27,1671.txt
0,0,13,0,0,0,24,0,0,7,18,6,5,29,0,26,30,5,17,24,22,30,23,20,22,26,23,6,17,8,21,2,18,0,21,18,6,19,24,9,18,0,18,0,0,0,0,0,0,0,0,13,4,3,30,29,3,28,0,3,27,0,4,0,5,1673.txt
0,0,13,0,0,0,24,0,0,7,24,6,5,29,4,26,30,5,28,4,22,30,26,26,26,26,4,6,23,8,13,2,27,13,21,18,15,19,24,9,18,0,13,0,0,2,2,2,2,13,0,9,6,11,5,29,3,28,0,10,4,8,5,13,5,1676.txt
0,0,13,0,0,0,24,0,0,7,0,6,5,29,0,26,30,5,17,24,22,30,23,20,22,26,23,6,17,8,21,2,18,0,21,18,6,19,24,9,18,0,13,0,0,0,0,0,0,1,0,9,1,1,25,29,3,28,0,5,1,1,1,0,27,1677.txt
0,0,13,0,0,30,25,0,0,30,24,11,11,12,4,27,8,11,28,4,5,23,27,27,27,26,4,18,23,29,15,8,3,14,2,29,4,17,23,28,9,9,10,3,3,12,12,12,13,13,7,6,4,3,30,12,7,10,1,3,4,8,4,13,12,1680.txt
5,0,29,3,16,3,30,30,30,3,29,13,13,11,2,7,12,27,5,29,11,11,21,2,20,2,9,4,7,28,27,11,9,12,2,15,30,11,23,13,8,14,9,3,3,12,12,21,13,13,22,19,3,5,4,21,7,22,1,21,23,6,4,13,5,1682.txt
