0,1,2,3,4,5,6,7,8,9,10,11,12,13,14,15,16,17,18,19,20,21,22,23,filename
7,14,17,15,28,24,22,28,22,21,26,16,26,25,28,29,23,26,27,24,25,25,28,21,2.txt
26,23,23,23,28,24,27,28,28,28,25,30,29,14,28,29,26,26,27,26,25,29,26,25,5.txt
28,25,25,26,19,27,25,21,25,24,18,14,16,23,24,15,15,13,12,12,27,10,10,9,9.txt
26,14,23,15,29,24,22,30,28,30,30,21,27,25,28,28,29,26,27,30,25,27,26,29,12.txt
7,14,17,15,28,24,22,28,22,21,20,16,26,28,28,27,23,26,27,24,25,25,28,21,14.txt
7,14,23,15,29,24,22,30,28,26,27,21,27,25,28,28,23,26,27,30,22,28,27,27,16.txt
26,14,17,15,28,24,22,28,22,28,27,16,29,25,28,28,30,26,25,24,25,30,27,21,17.txt
7,14,17,15,28,24,22,28,29,28,27,16,29,25,28,28,30,26,27,24,25,25,27,28,21.txt
7,14,17,15,30,24,22,30,28,26,26,26,27,25,28,28,23,26,27,24,25,28,28,25,23.txt
7,14,17,15,28,24,22,30,29,21,26,16,26,25,28,27,30,26,25,24,25,27,26,21,24.txt
7,23,17,15,28,24,22,28,22,21,20,16,26,23,28,27,23,26,27,24,25,25,27,21,26.txt
26,14,17,15,28,24,22,28,28,28,20,16,29,30,28,29,29,26,25,24,25,27,26,21,28.txt
25,23,23,15,28,24,22,28,29,21,27,22,25,23,28,27,23,21,27,30,24,25,27,26,30.txt
7,23,17,23,29,24,22,30,29,29,25,30,27,25,28,29,28,26,27,26,25,25,27,25,32.txt
25,23,23,15,28,24,22,30,28,21,27,16,26,23,28,27,23,26,27,29,22,28,27,21,34.txt
26,14,23,15,30,24,22,28,28,30,20,21,27,30,28,28,30,26,25,29,25,30,26,21,36.txt
26,14,17,15,28,24,22,30,29,28,20,16,26,30,28,27,29,26,27,24,25,28,28,21,40.txt
7,14,17,15,28,24,22,28,29,21,30,16,26,23,28,27,23,26,27,24,25,25,27,21,41.txt
7,14,17,15,30,24,22,28,28,26,20,26,27,30,28,29,23,26,27,24,25,28,27,21,49.txt
7,14,17,15,28,24,22,28,28,21,27,16,26,23,28,27,23,26,27,24,25,25,27,21,53.txt
7,14,17,15,28,24,22,28,22,21,20,16,26,23,28,27,23,26,27,24,25,25,27,21,55.txt
7,23,17,15,28,24,22,28,28,21,20,22,26,21,28,27,23,26,27,24,25,25,27,26,57.txt
7,14,17,15,30,24,22,28,22,26,20,26,27,30,28,28,23,26,27,24,25,28,27,21,60.txt
25,23,25,15,22,24,22,28,22,21,20,16,25,23,28,29,25,25,27,24,24,25,28,21,61.txt
7,14,17,15,28,24,22,30,28,21,20,16,26,28,28,27,30,26,27,24,22,27,27,21,63.txt
7,23,17,15,28,24,22,28,29,21,27,25,26,23,28,27,30,26,27,24,24,25,27,26,65.txt
7,23,17,15,28,24,22,28,28,21,25,30,26,21,28,29,27,25,27,26,29,29,27,21,68.txt
7,14,17,15,28,24,22,28,28,21,20,16,26,23,28,27,30,26,27,24,25,29,26,29,71.txt
7,14,17,15,29,24,22,30,28,30,30,21,27,25,28,28,30,26,27,30,25,28,26,21,72.txt
7,14,17,15,29,24,22,28,27,26,20,21,27,30,28,28,23,26,27,24,25,28,27,26,76.txt
25,14,17,15,28,24,22,28,22,21,20,16,26,23,28,29,23,26,27,24,25,25,28,25,78.txt
7,14,23,23,30,24,22,28,28,26,26,21,27,25,28,28,23,26,27,29,25,25,28,25,81.txt
7,14,17,15,28,24,22,28,29,21,20,16,26,23,28,27,23,26,27,24,25,25,27,21,84.txt
7,14,17,15,30,24,22,28,29,26,20,26,27,30,28,28,23,26,27,24,25,25,27,21,86.txt
27,14,25,21,22,30,22,28,29,21,26,16,22,23,28,27,25,25,27,24,24,25,27,21,89.txt
7,14,17,15,30,24,22,28,22,26,20,21,27,30,28,28,23,26,27,24,25,25,28,21,90.txt
7,14,17,15,30,24,22,28,29,30,20,26,27,30,28,28,30,26,27,24,25,28,27,21,92.txt
7,23,17,15,28,24,22,28,27,28,20,16,26,30,28,27,23,26,27,24,25,25,27,21,95.txt
7,14,23,23,28,24,22,28,29,21,26,16,26,25,28,27,26,26,27,30,25,30,26,25,97.txt
7,14,17,15,28,24,22,28,22,26,20,26,27,30,28,28,23,26,27,24,25,25,28,21,98.txt
7,14,17,15,30,24,22,28,29,26,20,26,27,30,28,28,23,26,27,24,25,25,27,21,100.txt
7,14,17,15,28,24,22,28,22,21,20,16,26,28,28,27,23,26,27,24,25,25,27,28,102.txt
7,14,17,15,28,24,22,30,22,21,20,16,26,28,28,27,23,26,27,24,25,25,27,25,105.txt
7,14,17,15,28,24,22,28,22,28,20,16,29,30,28,28,23,26,27,24,25,25,27,21,108.txt
7,14,17,15,29,24,22,28,29,30,27,26,27,25,28,29,30,26,27,24,25,28,27,25,110.txt
7,23,17,15,28,24,22,30,28,21,20,16,26,30,28,27,23,26,27,24,22,25,27,21,112.txt
7,14,23,23,28,24,22,28,29,21,27,22,26,14,28,27,23,26,27,28,22,25,27,25,114.txt
7,14,23,23,28,24,22,30,28,21,26,16,26,14,28,27,26,26,27,28,25,25,27,25,116.txt
7,14,17,15,28,24,22,28,29,28,20,16,29,30,28,29,23,26,27,24,25,25,27,21,118.txt
7,14,17,15,29,24,22,28,30,29,25,30,27,30,28,29,28,26,27,26,25,25,26,21,121.txt
25,14,25,15,28,24,22,28,22,21,20,16,23,23,28,29,30,21,27,24,29,27,27,25,123.txt
7,14,17,15,28,24,22,28,22,28,26,16,29,25,28,28,23,26,27,24,25,25,27,25,124.txt
7,14,17,15,28,24,22,28,28,28,20,16,29,30,28,29,23,26,27,24,25,25,28,21,126.txt
7,14,17,15,28,24,22,28,22,26,20,16,29,30,28,28,30,26,27,24,25,27,28,21,128.txt
7,14,17,15,28,24,22,28,29,26,20,16,29,30,28,28,29,26,27,24,25,25,27,21,130.txt
7,14,23,15,30,24,22,28,29,30,27,21,27,25,28,28,30,26,27,28,25,27,26,25,132.txt
7,23,17,15,28,24,22,28,28,21,20,16,26,23,28,29,23,26,27,24,25,25,27,29,135.txt
7,14,17,15,29,24,22,28,29,26,20,26,27,30,28,29,23,26,27,24,25,28,27,26,137.txt
7,14,23,15,28,24,22,28,29,28,26,16,29,25,28,27,23,26,27,29,25,25,27,29,141.txt
7,14,17,15,28,24,22,30,22,21,27,16,26,25,28,27,23,26,27,24,25,25,28,25,144.txt
7,14,17,15,28,24,22,28,28,21,27,16,26,28,28,27,30,26,27,24,25,25,26,21,145.txt
7,14,17,15,30,24,22,28,28,26,20,21,27,30,28,29,23,26,27,24,25,28,27,21,147.txt
7,14,23,15,28,24,22,28,22,21,27,16,26,25,28,29,23,26,27,30,25,25,27,25,149.txt
7,14,17,15,28,24,22,28,22,21,20,16,26,23,28,27,30,26,27,24,25,27,28,21,151.txt
7,14,17,15,28,24,22,28,29,28,20,16,29,30,28,29,23,26,27,24,25,25,27,21,154.txt
7,14,17,15,28,24,22,28,22,26,20,16,29,30,28,29,30,26,27,24,25,25,28,21,156.txt
7,14,17,15,28,24,22,28,29,21,27,16,26,23,28,29,23,26,27,24,25,25,27,21,158.txt
7,14,23,15,29,24,22,28,29,30,27,21,27,30,28,28,30,26,27,30,25,27,27,21,160.txt
17,14,17,15,28,24,22,28,29,21,20,16,26,30,28,27,23,26,27,24,25,25,27,21,161.txt
27,14,25,22,23,30,22,28,22,21,26,16,22,23,28,27,25,25,27,24,24,25,27,25,163.txt
7,14,17,15,28,24,22,28,29,28,20,16,29,30,28,29,23,26,27,24,25,25,27,21,165.txt
25,23,17,15,28,24,22,28,22,21,20,16,24,23,28,27,23,21,27,24,24,25,27,21,167.txt
25,14,17,15,28,24,22,28,22,21,20,16,26,23,28,27,23,26,27,24,25,25,28,21,169.txt
7,14,17,15,28,24,22,28,29,30,20,16,29,30,28,28,30,26,27,24,25,27,26,21,171.txt
25,23,17,15,28,24,22,28,29,21,27,16,26,23,28,27,23,26,27,24,25,25,27,28,173.txt
7,14,17,15,28,24,22,28,29,21,20,16,26,27,28,29,30,26,27,24,25,28,27,26,175.txt
7,23,17,15,28,24,22,28,29,28,20,16,29,30,28,27,23,26,27,24,25,25,27,21,177.txt
7,23,17,15,28,24,22,30,29,28,20,16,29,30,28,27,23,26,27,24,25,25,27,21,179.txt
7,14,17,15,29,24,22,30,28,26,20,26,27,30,28,28,23,26,27,24,25,25,27,21,182.txt
7,14,17,15,28,24,22,28,22,28,20,16,29,30,28,28,23,26,27,24,25,25,27,21,184.txt
7,14,17,15,28,24,22,28,22,21,20,16,26,28,28,27,30,26,27,24,25,25,28,21,188.txt
25,14,17,15,28,24,22,28,29,21,27,16,23,23,28,27,23,21,27,24,24,25,27,21,189.txt
7,14,23,15,28,24,22,28,28,21,26,16,26,25,28,27,23,26,27,30,25,25,27,25,191.txt
28,30,17,26,19,7,14,16,13,13,13,10,9,11,21,10,10,10,10,10,10,14,12,12,194.txt
7,14,17,15,29,24,22,30,28,30,20,26,27,30,28,28,30,26,27,24,25,28,26,21,197.txt
7,14,17,15,28,24,22,30,28,28,26,16,29,25,28,27,30,26,27,24,25,25,27,25,199.txt
7,14,17,15,28,24,22,30,28,28,20,16,29,30,28,28,23,26,27,24,25,28,27,21,203.txt
26,14,17,15,29,24,22,30,28,30,20,21,27,30,28,28,29,26,27,24,22,29,26,21,204.txt
25,14,17,15,28,24,22,28,22,21,26,16,26,23,28,27,23,26,27,24,22,25,27,21,209.txt
7,14,17,15,28,24,22,28,29,21,20,16,26,28,28,27,23,26,27,24,25,25,27,21,210.txt
17,14,17,15,28,24,22,28,22,28,20,16,29,30,28,27,30,26,27,24,25,28,27,21,212.txt
25,23,25,23,28,24,22,28,29,21,26,16,24,23,28,29,23,25,27,30,24,25,27,25,214.txt
13,23,17,15,27,7,14,16,13,13,13,10,9,11,21,10,10,10,10,10,10,16,15,14,217.txt
7,14,23,15,29,24,22,30,29,26,27,21,27,30,28,28,23,26,27,29,25,25,27,26,219.txt
7,14,17,15,28,24,22,28,22,26,20,21,27,30,28,28,23,26,27,24,25,28,28,21,220.txt
7,2,6,5,7,24,15,12,29,26,0,0,0,0,0,11,13,26,27,0,15,0,0,0,222.txt
7,14,17,15,29,24,22,28,29,26,20,26,27,30,28,28,23,26,27,24,25,28,27,21,225.txt
7,14,17,15,28,24,22,28,28,21,20,16,26,30,28,27,23,26,27,24,25,29,26,21,227.txt
7,14,17,15,28,24,22,28,22,28,20,16,29,30,28,28,23,26,27,24,25,25,28,21,229.txt
7,14,17,15,29,24,22,28,28,26,27,21,27,25,28,29,23,26,27,30,25,28,27,21,231.txt
7,23,17,15,28,24,22,30,22,28,20,16,26,30,28,27,23,26,27,24,25,25,27,21,236.txt
7,14,23,15,28,24,22,28,28,21,26,16,26,23,28,29,23,26,27,30,25,25,27,25,241.txt
7,14,17,15,29,24,22,28,28,26,20,21,27,30,28,28,23,26,27,24,25,25,27,25,242.txt
7,14,17,15,28,24,22,28,29,21,20,16,26,27,28,27,29,26,27,24,25,25,26,21,245.txt
7,14,23,23,28,24,22,28,29,21,26,16,26,14,28,27,26,26,27,28,22,25,27,25,247.txt
7,14,23,23,29,24,22,28,22,26,26,21,27,25,28,28,26,26,27,28,25,28,27,25,249.txt
7,14,23,23,30,24,22,28,30,26,26,26,27,14,28,29,23,26,27,28,25,25,27,25,250.txt
7,14,17,15,28,24,22,30,28,28,20,16,29,30,28,27,30,26,27,24,25,25,27,21,252.txt
7,23,17,15,28,24,22,28,29,28,25,16,29,25,28,29,23,26,27,24,25,25,27,25,256.txt
7,14,17,15,28,24,22,28,22,28,20,16,29,30,28,28,23,26,27,24,25,25,28,25,258.txt
7,14,17,15,28,24,22,28,22,26,20,26,27,30,28,28,23,26,27,24,25,27,27,21,260.txt
7,14,17,15,28,24,22,28,29,21,20,16,26,23,28,27,23,26,27,24,25,25,27,21,261.txt
7,14,17,15,30,24,22,28,29,26,20,26,27,30,28,28,23,26,27,24,25,28,27,21,264.txt
7,14,17,15,29,24,22,28,29,26,20,21,27,30,28,28,23,26,27,24,25,25,27,21,269.txt
7,23,17,15,28,24,22,28,28,28,20,16,29,30,28,29,23,26,27,24,25,29,27,21,272.txt
7,14,17,15,30,24,22,28,22,26,20,26,27,30,28,28,23,26,27,24,25,25,27,21,274.txt
28,15,6,5,7,27,15,21,25,24,18,14,16,0,24,15,15,13,12,12,27,10,10,9,276.txt
7,14,17,15,29,24,22,28,22,26,26,26,27,25,28,28,23,26,27,24,25,25,27,25,280.txt
7,14,17,15,29,24,22,28,28,30,20,21,27,30,28,28,29,26,27,24,25,28,27,21,282.txt
7,14,23,15,28,24,22,28,29,28,26,16,29,25,28,29,30,26,27,30,25,25,27,21,283.txt
7,23,23,15,28,24,22,30,29,21,26,16,26,23,28,27,23,26,27,30,25,25,27,25,284.txt
7,14,23,15,28,24,22,28,29,21,26,16,26,23,28,27,23,26,27,30,25,25,27,25,286.txt
7,14,17,15,28,24,22,30,29,21,20,16,26,27,28,27,23,26,27,24,22,25,27,21,288.txt
7,23,23,23,28,24,22,30,22,21,26,16,26,23,28,27,23,26,27,29,25,25,27,25,290.txt
7,14,23,23,29,24,22,28,28,26,26,21,27,25,28,28,30,26,27,30,25,25,27,25,293.txt
25,14,17,15,28,24,22,30,22,21,27,16,26,23,28,27,23,26,27,24,25,25,27,21,295.txt
13,25,3,27,1,7,12,11,11,11,11,8,7,9,18,13,12,16,16,15,14,12,16,15,297.txt
7,14,17,15,28,24,22,28,28,21,26,16,26,23,28,27,23,26,27,24,25,25,27,29,300.txt
7,14,17,15,28,24,22,28,22,28,20,16,26,30,28,27,23,26,27,24,25,25,28,21,303.txt
25,23,17,15,28,24,22,28,29,21,20,16,26,23,28,27,23,26,27,24,24,25,27,21,305.txt
7,23,23,15,28,24,28,28,29,21,29,22,26,25,28,27,23,26,27,30,25,25,27,25,307.txt
7,14,17,15,28,24,22,28,29,21,26,22,26,25,28,27,30,26,27,30,25,25,27,25,311.txt
7,14,17,15,28,24,22,28,29,21,20,16,26,28,28,27,30,26,27,24,25,25,27,21,313.txt
7,14,17,15,29,24,22,30,28,30,27,21,27,25,28,28,29,26,27,24,25,28,26,21,318.txt
7,14,17,15,29,24,22,30,28,26,20,26,27,30,28,28,30,26,27,24,25,28,27,21,320.txt
13,25,3,27,1,27,12,11,11,11,11,8,7,9,18,13,12,16,16,15,14,12,16,15,322.txt
13,25,3,27,1,27,12,11,11,11,11,8,7,9,18,13,12,16,16,15,14,12,16,15,323.txt
7,14,17,15,28,25,22,28,28,22,20,26,27,30,28,28,23,26,27,24,25,25,27,21,324.txt
25,14,17,15,28,24,22,30,28,21,26,16,26,23,28,27,30,26,27,24,22,25,27,21,326.txt
24,14,25,29,22,30,22,28,28,21,30,16,20,23,28,27,25,25,27,30,24,25,28,29,328.txt
7,14,17,15,29,24,22,28,28,26,20,21,27,30,28,29,23,26,27,24,25,25,27,21,329.txt
7,14,17,15,29,24,22,28,28,26,20,21,27,30,28,29,23,26,27,24,25,25,27,25,333.txt
7,14,17,15,28,24,22,30,29,28,27,16,29,25,28,28,23,26,27,24,25,25,27,25,335.txt
7,14,17,15,29,24,22,28,22,26,20,21,27,30,28,28,23,26,27,24,25,25,27,21,337.txt
7,14,23,23,28,24,28,28,27,28,29,16,26,25,28,29,26,26,27,28,25,28,27,25,341.txt
27,23,25,22,22,30,22,30,27,21,26,16,22,23,28,27,25,25,27,30,24,25,27,25,342.txt
7,14,17,15,28,24,22,30,28,21,20,16,26,28,28,27,30,26,27,24,25,25,27,25,344.txt
7,14,17,15,28,24,22,28,28,21,20,16,26,24,28,27,23,26,27,24,25,25,28,21,347.txt
7,14,17,15,28,24,22,28,22,21,27,16,26,23,28,29,23,26,27,24,25,25,27,21,349.txt
28,25,25,26,19,27,25,21,25,24,18,14,16,23,24,15,15,30,12,12,27,10,10,9,352.txt
25,14,17,15,28,30,22,28,22,21,20,16,23,23,28,27,23,21,27,24,24,25,27,21,354.txt
7,14,17,15,29,24,22,28,22,26,20,21,27,30,28,28,23,26,27,24,25,28,28,25,358.txt
7,14,17,15,29,24,22,30,28,26,20,21,27,30,28,28,23,26,27,24,22,25,27,21,360.txt
25,14,23,15,28,24,22,28,29,21,27,16,26,23,28,27,23,26,27,30,22,25,27,25,362.txt
7,14,17,15,28,24,22,30,23,21,27,16,26,25,28,27,23,22,15,24,22,29,27,29,364.txt
7,14,17,15,28,24,22,28,29,26,27,16,29,25,28,28,23,26,27,24,25,25,27,26,365.txt
7,14,17,15,30,24,22,28,27,30,26,26,27,25,28,29,30,26,27,24,25,27,26,21,368.txt
7,14,17,15,28,24,22,28,22,21,20,16,26,21,28,27,30,26,27,24,25,27,28,21,369.txt
7,14,17,15,28,24,22,28,28,28,20,16,29,30,28,28,23,26,27,24,25,25,27,21,371.txt
28,25,17,26,19,27,25,16,25,24,18,14,16,25,24,15,15,30,30,12,12,14,10,9,375.txt
27,14,25,22,28,30,22,28,29,21,26,16,23,23,28,27,23,21,27,30,24,25,27,25,377.txt
25,23,17,15,28,24,22,28,29,21,20,16,26,23,28,27,23,26,27,24,25,25,27,21,380.txt
29,23,17,15,27,24,22,28,27,27,25,30,27,30,28,26,27,21,27,26,29,30,26,21,382.txt
7,23,17,15,28,24,22,28,29,28,26,22,29,25,28,27,23,26,27,24,25,25,27,26,385.txt
13,25,19,27,1,27,12,11,11,11,11,8,7,9,18,13,12,16,16,15,14,12,16,15,386.txt
7,14,17,15,28,24,22,30,28,30,20,21,27,30,28,28,29,26,27,24,25,25,27,21,387.txt
7,14,17,15,28,24,22,28,22,21,27,16,26,23,28,29,23,26,27,24,25,25,28,25,391.txt
7,14,23,15,28,24,22,28,28,28,27,16,29,25,28,29,23,26,27,29,25,25,27,25,394.txt
25,14,17,23,28,24,22,28,29,21,26,16,26,23,28,27,23,26,27,24,25,25,27,25,395.txt
7,14,17,15,28,24,22,30,29,28,20,16,29,30,28,28,23,26,27,24,25,25,27,21,397.txt
7,23,17,15,28,24,22,28,29,28,20,16,29,30,28,27,23,26,27,24,25,25,27,21,400.txt
7,6,9,8,12,17,18,30,18,17,26,19,26,14,28,27,26,26,27,24,22,25,27,25,402.txt
7,23,17,15,28,24,22,28,28,21,20,16,26,21,28,27,23,26,27,24,25,25,27,21,405.txt
7,23,17,15,28,24,22,28,28,28,20,16,29,30,28,29,23,26,27,24,25,25,27,25,407.txt
7,23,23,23,28,24,22,28,29,21,25,30,26,21,28,27,28,25,27,29,24,25,27,25,411.txt
25,14,17,15,28,24,22,28,28,21,20,16,26,23,28,27,23,26,27,24,22,28,28,21,413.txt
7,14,17,15,28,24,22,28,22,21,27,16,26,23,28,29,23,26,27,24,25,25,27,21,416.txt
7,14,17,15,28,24,22,28,28,21,25,30,26,25,28,27,28,25,27,26,26,25,27,25,417.txt
7,14,17,15,29,24,22,30,28,26,20,21,27,30,28,28,30,26,27,24,25,28,30,21,419.txt
7,14,17,15,28,24,22,30,28,28,20,25,29,30,28,28,23,26,27,24,22,25,27,26,421.txt
7,14,17,15,30,24,22,28,29,26,20,26,27,30,28,28,23,26,27,24,25,25,27,21,423.txt
25,23,25,15,28,24,22,28,22,21,27,16,23,23,28,27,23,25,27,30,24,28,28,25,425.txt
7,14,17,15,29,24,22,28,28,26,20,21,27,30,28,28,23,26,27,24,25,28,27,21,427.txt
7,14,17,15,29,24,22,30,28,26,20,26,27,30,28,28,23,26,27,24,25,28,27,21,430.txt
7,14,17,15,28,24,22,28,29,21,20,16,26,23,28,27,23,26,27,24,25,25,27,21,434.txt
7,23,17,15,30,24,22,28,29,30,26,26,27,25,28,28,29,26,27,24,25,27,27,21,436.txt
7,14,23,15,28,24,22,28,29,28,26,16,29,25,28,29,23,26,27,30,25,25,27,25,439.txt
7,14,23,23,30,24,22,28,28,30,26,21,27,25,28,28,30,26,27,29,25,28,27,29,444.txt
7,14,23,23,28,24,22,30,22,21,26,16,26,14,28,27,23,26,27,30,25,25,27,25,447.txt
7,14,23,23,29,24,22,28,28,26,26,21,27,25,28,28,26,26,27,28,22,28,27,25,449.txt
7,14,17,15,28,24,22,28,22,28,20,16,29,30,28,27,30,26,27,24,25,27,26,21,452.txt
25,14,23,15,28,24,22,30,27,21,26,16,26,23,28,29,23,26,27,30,25,25,27,27,454.txt
25,14,23,23,28,24,22,28,22,21,26,16,26,23,28,27,23,26,27,29,25,25,28,25,456.txt
7,14,17,15,28,24,22,28,28,21,20,16,26,27,28,27,23,26,27,24,25,25,27,21,458.txt
7,23,17,15,28,24,22,28,29,21,20,16,26,28,28,27,23,26,27,24,25,25,27,21,460.txt
7,14,23,15,28,24,22,30,29,21,27,16,26,25,28,27,30,26,27,30,25,25,26,21,463.txt
7,14,17,15,28,24,22,28,28,21,26,16,26,23,28,27,23,26,27,30,25,25,27,25,465.txt
7,14,23,15,28,24,22,30,29,21,27,23,26,25,28,27,23,26,27,30,25,25,27,25,469.txt
7,23,23,23,22,24,22,30,27,28,25,30,29,25,28,30,25,28,27,26,24,25,27,25,472.txt
7,14,17,15,28,24,22,28,29,21,20,22,26,23,28,27,23,26,27,24,25,25,27,26,473.txt
7,14,23,23,28,24,22,28,29,28,26,22,29,25,28,28,23,26,27,29,25,25,27,25,475.txt
7,23,17,15,28,24,22,30,29,21,20,16,26,27,28,27,23,26,27,24,22,25,27,25,477.txt
7,14,17,15,28,24,22,28,29,21,20,16,26,24,28,27,23,26,27,24,25,25,27,21,479.txt
25,14,17,15,28,24,22,28,22,21,20,16,26,23,28,27,23,26,27,24,25,25,28,21,481.txt
7,14,17,15,28,24,22,28,28,21,20,16,26,27,28,27,23,26,27,24,25,25,27,28,485.txt
7,14,17,15,28,24,22,28,22,28,20,16,29,30,28,27,23,26,27,24,22,25,27,21,487.txt
7,14,17,15,28,24,22,28,22,21,26,16,26,14,28,27,23,26,27,24,25,25,27,25,488.txt
7,14,17,15,28,24,22,28,22,26,20,16,29,30,28,28,23,26,27,24,25,25,28,21,491.txt
7,15,6,5,7,24,15,12,28,28,0,0,21,0,0,11,13,26,27,0,15,0,0,0,492.txt
7,14,23,15,28,24,22,28,28,21,27,16,26,25,28,27,23,26,27,29,25,25,27,25,494.txt
28,25,25,26,19,27,25,21,25,24,18,14,16,23,24,15,15,13,12,12,27,10,10,9,496.txt
7,14,17,15,29,24,22,30,28,26,20,26,27,30,28,28,23,26,27,24,25,28,27,26,498.txt
7,14,17,15,28,24,22,28,28,21,27,16,26,27,28,27,23,26,27,24,25,28,27,21,500.txt
19,25,25,26,19,28,26,22,24,25,19,13,17,23,25,14,14,12,13,11,11,9,9,8,502.txt
25,23,25,15,28,24,22,28,22,21,20,16,22,23,28,27,23,25,27,24,24,25,28,25,503.txt
7,14,17,15,28,24,22,28,22,21,26,16,26,25,28,29,23,26,27,24,25,25,27,25,505.txt
7,23,17,15,28,24,22,28,29,21,20,16,26,28,28,27,23,26,27,24,25,25,27,21,507.txt
7,14,23,23,28,24,22,30,22,21,26,16,26,25,28,27,30,26,27,29,22,25,27,25,510.txt
7,14,17,15,28,24,22,28,29,21,27,16,26,27,28,29,30,26,27,24,25,28,27,26,513.txt
7,14,17,15,29,24,22,30,28,26,20,21,27,30,28,28,23,26,27,24,22,25,27,21,516.txt
25,14,23,23,28,24,22,30,27,21,26,16,26,23,28,27,23,26,27,30,25,25,27,25,518.txt
7,14,23,23,29,24,22,28,28,26,25,30,27,25,28,29,28,26,27,29,25,29,27,25,521.txt
7,14,17,15,29,24,22,28,28,28,25,30,27,30,28,29,25,25,27,26,24,25,27,26,524.txt
28,24,25,25,19,27,25,21,25,24,18,14,16,23,24,15,15,13,12,12,27,10,10,9,527.txt
7,14,17,15,28,24,22,30,28,26,20,16,29,30,28,28,23,26,27,24,25,28,27,21,529.txt
25,23,25,15,22,30,22,28,28,21,26,16,22,23,28,27,25,25,27,24,24,27,28,21,530.txt
7,23,17,15,28,24,22,28,22,21,20,16,26,23,28,27,23,26,27,24,25,25,28,28,532.txt
7,14,17,15,28,24,22,28,22,21,27,16,26,23,28,27,23,26,27,24,25,28,28,25,534.txt
7,23,17,15,28,24,22,28,22,28,20,16,29,30,28,29,23,26,27,24,25,28,28,21,536.txt
7,14,17,15,28,24,22,28,22,28,20,16,29,30,28,28,23,26,27,24,25,25,27,21,538.txt
25,14,17,15,28,24,22,28,22,21,20,16,26,23,28,27,23,26,27,24,22,25,28,21,541.txt
7,14,17,15,28,24,22,30,22,28,20,16,29,30,28,28,23,26,27,24,25,25,28,21,543.txt
7,14,17,15,28,24,22,28,22,26,27,16,29,25,28,28,23,26,27,24,25,25,28,25,545.txt
7,14,23,23,29,24,22,28,29,30,26,26,27,25,28,28,30,26,27,29,25,25,27,25,549.txt
7,14,17,15,28,24,22,28,22,21,26,16,26,25,28,27,23,26,27,24,25,25,27,21,551.txt
7,14,17,15,28,24,22,28,29,21,20,16,26,23,28,27,23,26,27,24,25,25,27,21,554.txt
23,22,25,29,22,29,22,30,22,21,27,16,20,23,28,27,25,27,27,24,24,25,27,21,557.txt
7,14,17,15,28,24,22,28,28,28,20,16,29,30,28,29,23,26,27,24,25,25,27,21,558.txt
7,14,17,15,28,24,22,28,28,21,27,16,26,27,28,29,23,26,27,24,25,25,27,21,561.txt
28,25,23,26,19,27,25,21,25,24,18,14,16,14,24,15,15,13,30,12,27,10,10,9,564.txt
7,14,23,23,28,24,22,28,29,21,26,16,26,14,28,27,30,26,27,30,25,25,27,25,566.txt
7,14,23,23,28,24,22,28,29,21,26,16,26,25,28,27,23,26,27,30,25,25,27,25,568.txt
7,14,17,15,28,24,22,28,29,28,27,16,28,25,28,27,23,26,27,30,25,25,27,28,572.txt
7,14,17,15,30,24,22,28,22,26,27,21,27,30,28,28,23,26,27,24,22,28,27,25,574.txt
7,14,17,15,28,24,22,28,29,21,20,22,26,28,28,27,23,26,27,24,22,25,27,26,576.txt
7,14,17,15,30,24,22,28,22,26,20,26,27,30,28,28,23,26,27,24,25,28,27,21,578.txt
7,23,17,15,28,24,22,28,22,21,20,16,26,28,28,27,23,26,27,24,25,25,28,25,580.txt
7,23,17,15,28,24,22,28,29,28,20,22,29,30,28,27,23,26,27,24,25,25,27,26,582.txt
7,14,17,15,29,24,22,28,29,26,20,26,27,30,28,28,23,26,27,24,25,27,27,21,584.txt
28,25,25,26,19,27,25,21,25,24,18,14,16,23,24,15,15,13,30,12,27,10,10,9,586.txt
7,14,17,15,28,24,22,30,28,26,26,21,27,25,28,28,23,26,27,24,22,25,27,21,588.txt
7,14,17,15,28,24,22,28,29,21,26,16,26,23,28,27,30,26,27,24,22,27,26,21,591.txt
7,14,17,15,28,24,22,28,28,21,27,16,26,23,28,27,23,26,27,24,25,25,27,21,594.txt
7,14,17,15,28,24,22,28,22,28,20,26,27,30,28,28,30,26,27,24,25,25,27,21,596.txt
7,14,17,15,29,24,22,30,29,26,20,26,27,30,28,28,23,26,27,24,25,28,27,26,598.txt
7,14,17,15,29,24,22,28,28,26,20,21,27,30,28,28,23,26,27,24,25,25,27,21,600.txt
7,14,17,15,28,24,22,28,29,28,20,16,29,30,28,27,23,26,27,24,25,25,27,21,603.txt
25,23,17,15,28,24,22,30,28,21,20,16,26,23,28,27,23,26,27,24,24,25,27,21,604.txt
7,14,17,15,28,24,22,30,28,26,20,16,29,30,28,28,23,26,27,24,22,25,28,21,606.txt
7,14,17,15,28,24,22,28,22,30,20,16,29,30,28,28,30,26,27,24,25,25,28,21,607.txt
7,14,17,15,30,24,22,30,28,26,20,21,27,30,28,28,23,26,27,24,25,25,27,25,613.txt
7,14,17,15,30,24,22,28,28,26,20,26,27,30,28,29,23,26,27,24,25,28,27,21,615.txt
7,14,17,15,30,24,22,30,28,26,20,26,27,30,28,28,23,26,27,24,25,28,27,21,618.txt
7,14,17,15,29,24,22,28,29,30,20,21,27,30,28,29,30,26,27,24,25,25,27,21,621.txt
7,23,17,15,30,24,22,28,28,28,20,26,27,30,28,29,23,26,27,24,25,28,27,25,623.txt
7,23,17,23,28,24,22,28,28,21,25,30,26,25,28,29,25,25,27,26,24,25,27,26,624.txt
7,14,17,15,28,24,22,30,29,26,20,26,27,30,28,28,30,26,27,24,22,25,27,21,627.txt
7,14,17,15,28,24,22,28,22,21,26,16,26,25,28,27,23,26,27,24,25,28,28,25,628.txt
7,14,17,15,28,24,22,30,28,26,20,16,29,30,28,28,23,26,27,24,25,25,27,25,629.txt
13,23,17,15,26,24,22,28,27,30,25,30,27,25,28,28,28,26,25,26,25,30,26,21,631.txt
25,14,17,15,28,24,22,28,27,21,26,16,25,23,28,27,30,26,27,24,25,28,27,25,633.txt
7,14,17,15,28,25,22,28,23,22,20,16,29,30,28,27,23,22,15,24,25,25,27,21,635.txt
7,23,17,15,28,24,22,28,22,21,20,16,26,30,28,27,23,26,27,24,25,25,28,21,637.txt
16,14,17,15,28,24,22,28,29,30,27,21,27,14,28,29,30,26,29,24,25,25,26,25,642.txt
7,14,17,15,28,24,22,28,28,28,20,16,29,30,28,29,23,26,27,24,25,25,27,27,645.txt
7,23,17,15,22,7,14,16,13,13,13,10,9,11,21,10,10,10,10,10,10,16,15,14,647.txt
7,14,17,15,28,24,22,30,30,21,20,16,26,28,28,27,23,26,27,24,22,25,27,25,650.txt
7,14,17,15,28,24,22,28,29,21,26,16,26,23,28,29,23,26,27,24,25,25,26,21,652.txt
7,14,23,23,29,24,22,28,29,26,26,21,27,25,28,29,23,26,27,28,25,25,27,25,654.txt
7,14,23,23,28,24,22,28,29,21,26,16,26,14,28,27,26,26,27,28,25,25,27,25,657.txt
7,14,17,15,30,24,22,28,22,26,27,26,27,25,28,29,23,26,27,24,25,28,27,21,658.txt
7,14,17,15,29,24,22,28,29,26,20,21,27,30,28,29,23,26,25,24,25,28,27,21,662.txt
7,14,17,15,28,24,22,28,28,21,20,16,26,23,28,29,30,26,27,24,25,25,28,21,663.txt
7,14,17,15,28,24,22,28,22,28,20,16,26,30,28,29,30,26,27,24,25,25,27,21,665.txt
7,14,17,15,28,24,22,28,22,21,20,16,26,28,28,27,23,26,27,24,22,25,27,21,669.txt
7,23,17,15,30,24,22,28,22,26,20,26,27,30,28,29,23,26,27,24,25,27,28,21,671.txt
26,23,23,15,28,24,22,28,22,21,20,16,26,23,28,27,30,26,27,30,22,27,27,25,673.txt
7,23,17,15,28,24,22,30,28,21,20,16,26,23,28,27,23,26,27,24,25,25,27,21,675.txt
28,25,25,26,19,27,25,21,25,24,18,14,16,21,24,15,15,30,30,12,27,10,10,9,678.txt
7,14,17,15,28,24,22,28,22,21,20,16,26,23,28,27,23,26,27,24,22,25,28,25,680.txt
7,14,17,15,28,24,22,28,22,26,20,16,29,30,28,28,23,26,27,24,25,25,27,21,683.txt
7,14,17,15,29,24,22,30,29,26,20,26,27,30,28,28,23,26,27,24,25,25,27,21,685.txt
7,14,17,15,28,24,22,30,22,28,20,16,29,30,28,28,23,26,27,24,25,25,28,21,687.txt
7,14,17,15,28,24,22,28,29,28,20,16,26,30,28,27,23,26,27,24,25,25,27,21,689.txt
7,14,17,15,28,24,22,28,22,21,27,16,26,25,28,27,30,26,27,24,25,27,27,21,691.txt
7,23,17,23,28,24,22,30,27,28,25,30,27,25,28,27,28,26,27,30,22,25,27,27,695.txt
7,23,17,15,28,24,22,28,22,21,26,16,26,25,28,27,23,26,27,24,25,25,28,25,696.txt
7,23,17,15,28,24,22,28,29,21,20,16,26,27,28,29,23,26,27,24,25,25,27,21,700.txt
25,14,25,15,28,30,22,28,22,21,20,16,23,23,28,27,23,25,27,24,24,25,28,21,703.txt
7,23,23,23,29,24,22,28,27,29,25,30,27,25,28,26,28,26,27,26,25,28,26,25,705.txt
7,14,17,15,28,24,22,28,22,21,20,16,26,28,28,27,23,26,27,24,25,25,27,29,706.txt
7,14,23,23,29,24,30,28,29,26,26,26,27,25,28,28,26,26,27,28,25,25,27,25,709.txt
7,14,23,23,28,24,22,28,22,28,26,16,29,14,28,28,26,26,27,28,25,25,27,25,711.txt
7,14,17,15,28,24,22,28,27,28,27,16,29,25,28,28,30,26,25,24,25,27,26,28,712.txt
28,24,25,26,19,27,25,21,25,24,18,14,16,23,24,15,15,13,12,12,27,10,10,9,713.txt
7,14,17,15,27,24,22,30,28,26,20,21,27,30,28,28,23,26,27,24,25,28,26,21,716.txt
7,14,23,23,28,24,22,30,29,21,26,16,26,25,28,27,26,26,27,28,25,25,27,25,722.txt
7,14,17,15,28,24,22,28,28,21,20,16,26,28,28,29,23,26,27,24,25,25,28,21,724.txt
7,14,17,15,29,24,22,28,28,30,20,21,27,30,28,28,29,26,27,24,25,30,26,21,727.txt
25,14,17,15,28,24,22,28,29,21,20,16,26,23,28,27,23,26,27,24,22,25,27,28,728.txt
7,14,17,15,28,24,22,30,28,21,20,16,26,28,28,27,23,26,27,24,25,25,27,21,732.txt
7,14,17,15,28,24,22,28,22,21,20,16,26,21,28,27,23,26,27,24,25,25,28,21,734.txt
7,23,17,15,28,24,22,28,22,21,20,16,26,23,28,27,23,25,27,24,24,25,27,21,735.txt
7,14,23,23,28,24,22,28,29,21,26,16,26,25,28,29,23,26,27,30,25,25,27,25,737.txt
7,14,17,15,28,24,22,28,29,21,20,16,26,23,28,27,23,26,27,24,25,25,27,21,738.txt
7,14,17,15,29,24,22,28,29,26,27,26,27,25,28,28,23,26,27,30,25,25,27,27,741.txt
7,14,23,23,28,24,30,28,29,21,29,16,26,14,28,27,26,26,27,28,22,28,27,25,743.txt
7,14,17,15,28,24,22,28,29,21,27,23,26,25,28,27,23,26,27,24,25,25,27,26,747.txt
28,24,25,26,19,27,25,21,25,24,18,14,16,23,24,15,15,13,12,12,27,10,10,9,748.txt
7,14,17,15,28,24,22,28,28,28,20,16,26,30,28,29,23,26,27,24,25,25,27,21,751.txt
7,14,23,23,29,24,22,28,28,30,26,26,27,25,28,29,29,26,27,30,25,29,26,29,755.txt
25,14,17,15,28,24,22,28,27,21,26,16,26,23,28,27,23,26,27,30,25,25,26,21,756.txt
7,23,17,15,28,24,22,30,28,21,20,16,26,23,28,27,23,26,27,24,24,25,27,21,760.txt
26,14,23,15,29,24,22,28,28,30,27,21,27,25,28,28,29,26,27,30,25,27,26,21,765.txt
7,14,23,15,29,24,22,28,22,26,26,21,27,25,28,28,23,26,27,30,25,28,27,25,766.txt
7,14,17,15,28,24,22,30,28,28,20,16,26,30,28,27,23,26,27,24,22,25,27,21,768.txt
25,14,23,23,28,24,22,28,28,21,26,16,26,23,28,27,23,26,27,30,22,25,27,25,771.txt
2,28,23,15,28,3,11,6,6,6,6,5,26,25,28,27,23,26,27,30,22,25,27,7,772.txt
7,14,17,15,29,24,22,28,22,26,20,26,27,30,28,28,23,26,27,24,25,25,28,21,773.txt
25,14,17,15,28,24,22,28,29,21,26,24,26,23,28,27,23,26,27,24,25,25,27,26,775.txt
7,14,17,15,28,24,22,28,28,21,27,16,26,23,28,27,23,26,27,24,25,28,28,21,777.txt
7,14,17,15,28,24,22,28,29,21,26,16,26,23,28,29,23,26,27,24,25,25,27,28,779.txt
17,14,17,15,28,24,22,28,22,28,20,16,29,30,28,29,23,26,27,24,25,28,28,21,781.txt
7,14,17,15,28,24,22,28,29,28,20,16,29,30,28,28,23,26,27,24,25,25,27,21,785.txt
7,14,17,15,30,24,22,28,28,26,20,26,27,30,28,29,23,26,27,24,25,25,28,21,787.txt
7,23,17,15,28,24,22,28,29,21,27,16,26,21,28,27,23,26,27,24,25,25,27,21,790.txt
7,14,23,15,28,24,22,28,29,21,26,25,26,25,28,27,23,26,27,30,25,25,27,26,792.txt
25,14,17,15,28,24,22,28,29,21,20,16,26,23,28,27,23,26,27,24,25,25,27,25,796.txt
7,14,17,15,28,24,22,28,28,21,20,16,26,28,28,27,23,26,27,24,25,25,28,21,800.txt
7,14,17,15,28,24,22,28,29,28,20,16,29,30,28,27,23,26,27,24,25,25,27,21,802.txt
28,25,25,25,19,27,25,21,25,24,18,14,16,23,24,15,15,13,12,12,27,10,10,9,806.txt
7,14,23,15,28,24,22,28,28,26,27,16,29,25,28,28,23,26,27,30,25,25,27,21,807.txt
7,14,17,15,28,25,22,28,23,22,20,16,26,28,28,27,23,22,15,24,25,25,27,21,810.txt
7,14,17,15,30,24,22,28,29,26,20,21,27,30,28,28,23,26,27,24,25,28,27,21,813.txt
7,23,17,15,22,24,22,30,27,27,25,30,27,25,28,26,25,28,27,26,24,27,27,21,816.txt
7,14,23,15,29,24,22,28,29,30,27,26,27,30,28,28,30,26,27,29,25,28,27,21,817.txt
7,14,17,15,28,24,22,28,28,26,26,16,29,25,28,29,23,26,25,24,25,25,27,25,818.txt
7,14,17,15,29,24,22,28,29,26,26,21,27,25,28,28,23,26,27,24,25,25,27,26,821.txt
7,23,23,15,28,24,22,28,29,21,26,16,26,23,28,27,23,26,27,29,25,25,27,25,824.txt
7,14,17,15,28,24,22,28,22,21,20,16,26,30,28,27,23,26,27,24,25,25,28,21,827.txt
7,23,17,15,28,24,22,30,22,21,20,16,26,30,28,27,23,26,27,24,25,25,28,21,831.txt
7,14,17,15,30,24,22,30,22,26,20,26,27,30,28,28,23,26,27,24,25,25,28,21,832.txt
7,14,17,15,28,24,22,28,22,28,20,16,29,30,28,29,23,26,27,24,25,25,27,21,834.txt
7,14,17,15,28,24,22,30,27,21,20,16,26,28,28,27,23,26,27,24,25,25,27,21,836.txt
7,14,17,15,28,24,22,28,29,28,27,16,29,25,28,29,23,26,27,24,25,28,27,21,839.txt
7,23,17,15,28,24,22,28,22,21,27,16,26,25,28,27,23,26,27,24,22,25,27,25,842.txt
7,14,17,15,30,24,22,28,29,26,20,26,27,30,28,29,23,26,27,24,25,28,27,21,847.txt
7,14,23,15,29,24,22,30,28,30,20,21,27,14,28,28,30,26,27,28,25,25,27,25,851.txt
28,25,25,26,19,27,25,21,25,24,18,14,16,23,24,15,15,30,12,12,27,10,10,9,852.txt
7,23,23,23,30,24,22,28,29,26,26,26,27,25,28,28,23,26,27,30,25,28,27,25,855.txt
7,14,17,15,28,24,22,30,30,21,27,16,26,23,28,27,23,26,27,24,22,25,27,21,857.txt
7,14,17,15,29,24,22,30,28,26,20,26,27,30,28,28,23,26,27,24,22,28,28,21,859.txt
7,23,17,15,28,24,22,28,29,21,20,22,26,21,28,27,23,26,27,24,25,25,27,26,861.txt
7,14,23,23,29,24,22,30,27,26,26,21,27,25,28,28,23,26,27,28,22,25,27,25,864.txt
27,14,25,22,25,30,22,28,29,21,26,16,22,23,28,27,23,25,27,30,24,25,27,29,866.txt
25,14,17,15,28,24,22,28,29,21,20,16,26,23,28,29,23,21,27,24,24,25,27,21,868.txt
7,14,17,15,29,24,22,28,22,26,20,21,27,30,28,28,23,26,27,24,25,25,28,21,870.txt
7,23,17,15,28,24,22,28,28,21,26,16,26,21,28,27,23,26,27,24,25,25,27,25,872.txt
7,14,23,23,28,24,22,28,29,28,26,16,29,14,28,28,26,26,27,28,25,25,27,25,874.txt
7,14,17,15,30,24,22,28,29,26,20,26,27,30,28,28,23,26,27,24,25,28,27,21,879.txt
7,14,17,15,28,24,22,28,29,26,20,21,27,30,28,28,30,26,27,24,25,25,26,21,882.txt
7,14,23,23,29,24,22,28,29,26,26,21,27,14,28,28,23,26,27,29,25,25,27,25,884.txt
7,14,17,15,28,24,22,28,28,28,27,16,29,30,28,28,23,26,27,24,25,25,27,25,885.txt
7,14,17,15,29,24,22,30,22,26,27,21,27,25,28,28,23,26,27,24,25,25,27,21,886.txt
7,14,17,15,28,24,22,28,22,21,27,16,26,25,28,27,23,26,27,24,25,25,28,25,889.txt
7,14,17,15,29,24,22,28,27,26,26,26,27,25,28,29,23,26,27,24,25,28,27,25,891.txt
7,14,17,15,28,24,22,28,22,21,20,16,26,23,28,27,23,26,27,24,25,25,27,21,893.txt
7,23,23,23,28,24,22,28,28,21,26,16,26,14,28,27,26,26,27,28,22,25,27,25,896.txt
7,23,23,15,28,24,22,28,29,21,26,16,26,23,28,27,23,26,27,30,24,25,27,29,900.txt
7,23,17,15,28,24,22,28,22,21,20,16,26,21,28,27,23,26,27,24,25,25,27,21,902.txt
26,14,23,23,26,24,22,28,30,30,25,30,27,25,28,29,28,26,25,27,25,29,26,25,905.txt
7,14,17,15,28,24,22,28,29,28,26,16,29,25,28,28,23,26,27,24,25,25,27,25,907.txt
7,14,17,15,29,24,22,28,22,26,20,26,27,30,28,28,23,26,27,24,25,28,27,21,909.txt
7,14,23,23,28,24,22,30,28,21,26,16,26,25,28,27,23,26,27,28,22,25,28,25,911.txt
7,14,17,15,29,24,22,28,22,26,20,26,27,30,28,28,30,26,27,24,25,28,27,21,914.txt
28,25,19,26,19,27,25,21,25,24,18,14,16,21,24,15,15,30,30,12,12,10,10,9,917.txt
7,23,23,15,28,24,22,28,29,21,27,16,26,21,28,27,23,26,27,29,22,25,27,25,922.txt
17,14,17,15,28,24,22,28,22,28,20,16,29,30,28,28,30,26,27,24,25,27,26,29,924.txt
7,14,17,15,28,24,22,28,29,28,20,16,29,30,28,27,23,26,27,24,25,25,27,21,925.txt
7,23,23,15,28,24,22,28,29,21,26,16,26,25,28,27,23,26,27,30,25,25,27,25,926.txt
25,23,17,15,22,24,22,28,22,21,27,16,26,23,28,27,25,25,27,24,24,25,27,21,928.txt
7,14,17,15,28,24,22,28,22,21,20,16,26,23,28,27,23,26,27,24,25,25,27,21,930.txt
7,14,23,15,28,24,22,30,29,26,26,16,29,25,28,28,23,26,27,30,22,25,27,25,932.txt
28,25,23,26,19,27,25,21,25,24,18,14,16,25,24,15,15,13,30,12,12,10,10,9,935.txt
25,14,27,15,28,24,22,28,29,21,27,16,23,23,28,29,23,21,27,30,24,25,28,21,940.txt
7,14,17,15,28,24,22,30,22,21,20,16,26,30,28,27,23,26,27,24,25,25,28,21,942.txt
13,23,17,15,28,24,22,30,28,28,25,30,29,30,28,27,28,26,27,27,22,29,28,21,944.txt
7,14,17,15,28,24,22,28,29,21,20,16,26,28,28,27,23,26,27,24,25,25,27,21,946.txt
7,14,17,15,28,24,22,28,22,21,27,16,26,25,28,27,23,26,27,24,25,25,27,25,949.txt
7,14,17,15,29,24,22,28,22,26,20,21,27,30,28,28,23,26,27,24,25,28,27,21,951.txt
7,14,17,23,28,24,22,28,29,21,26,23,26,15,28,27,23,26,27,24,22,25,27,25,954.txt
7,14,17,15,30,24,22,28,22,26,20,26,27,30,28,28,30,26,27,24,25,28,28,21,956.txt
7,23,17,15,28,24,22,28,29,21,20,16,26,23,28,27,30,26,27,24,25,25,27,21,959.txt
7,14,17,15,28,24,22,28,22,21,26,16,26,23,28,27,23,26,27,30,25,25,28,25,961.txt
7,14,17,15,28,24,22,28,29,28,20,16,29,30,28,28,23,26,27,24,25,25,27,21,962.txt
7,14,17,23,30,24,22,28,29,26,26,26,27,14,28,29,26,26,27,30,25,25,27,25,964.txt
7,14,23,15,28,24,22,30,28,26,26,25,29,14,28,28,30,26,27,30,25,25,27,25,966.txt
7,14,17,15,28,24,22,30,28,26,27,16,29,25,28,28,23,26,27,24,22,25,27,21,968.txt
7,14,17,15,29,24,22,28,22,26,20,21,27,30,28,28,23,26,27,24,25,25,28,21,970.txt
7,14,17,15,29,24,22,28,29,26,20,26,27,30,28,29,23,26,27,24,25,28,27,21,974.txt
7,14,17,15,28,24,22,28,22,21,20,16,26,28,28,27,23,26,27,24,25,25,27,21,975.txt
26,23,17,15,28,24,22,30,28,21,26,16,26,25,28,27,29,26,25,24,25,29,26,25,979.txt
26,14,23,23,28,24,22,28,29,21,27,23,26,25,28,27,29,26,25,30,22,30,26,25,981.txt
7,14,17,15,28,24,22,30,28,21,20,16,26,23,28,27,23,26,27,24,22,25,27,21,987.txt
7,14,23,23,29,24,22,30,28,30,26,21,27,25,28,28,30,26,27,30,25,25,27,25,989.txt
28,25,25,26,19,27,25,21,25,24,18,14,16,28,24,15,15,13,30,12,27,10,10,9,994.txt
7,14,17,15,30,24,22,30,28,26,20,21,27,30,28,28,23,26,27,24,22,28,27,21,996.txt
7,14,17,15,28,24,22,28,22,21,26,16,26,21,28,27,23,26,27,24,22,25,27,21,998.txt
7,14,17,15,30,24,22,30,29,26,27,21,27,30,28,28,30,26,27,24,22,28,27,27,1002.txt
7,14,17,15,29,24,22,30,28,26,20,26,27,30,28,28,23,26,27,24,22,28,28,21,1005.txt
7,14,17,15,28,24,22,28,22,28,20,16,29,30,28,29,23,26,27,24,25,25,28,21,1008.txt
7,23,17,15,28,24,22,28,22,21,27,16,26,25,28,27,30,26,27,24,25,27,27,21,1010.txt
7,14,17,15,28,24,22,28,22,28,20,16,26,30,28,29,30,26,27,24,25,25,27,21,1013.txt
7,14,17,15,28,24,22,28,29,28,26,16,29,25,28,27,23,26,27,24,25,25,27,21,1015.txt
7,14,17,15,28,24,22,28,28,28,20,23,29,30,28,29,30,26,27,24,25,25,27,25,1018.txt
7,23,23,23,29,24,28,28,27,26,25,30,27,25,28,26,26,26,27,26,25,25,26,25,1020.txt
7,14,17,15,29,24,22,28,29,30,26,21,27,25,28,28,29,26,27,24,25,27,26,21,1022.txt
7,14,17,15,29,24,22,30,28,26,20,21,27,30,28,28,23,26,27,24,22,25,27,25,1025.txt
7,14,17,15,29,24,22,28,27,30,20,26,27,30,28,28,30,26,27,24,25,25,28,21,1027.txt
7,14,17,15,29,24,22,28,29,26,27,21,27,30,28,28,30,26,27,24,25,28,27,26,1030.txt
7,14,17,15,30,24,22,28,29,28,20,26,27,30,28,29,30,26,27,24,25,25,27,21,1036.txt
7,14,17,15,29,24,22,28,22,26,20,26,27,30,28,28,23,26,27,24,25,25,28,21,1041.txt
7,14,17,15,29,24,22,28,28,26,20,26,27,30,28,29,23,26,27,24,25,29,27,25,1043.txt
7,14,17,15,29,24,22,30,28,26,27,26,27,25,28,28,23,26,27,24,25,28,27,28,1045.txt
7,14,17,15,28,24,22,28,29,21,20,16,26,30,28,27,23,26,27,24,25,25,27,21,1046.txt
7,14,17,15,28,24,22,30,27,28,20,16,29,30,28,28,29,26,25,24,25,30,26,21,1048.txt
7,14,17,15,28,24,22,28,28,26,20,26,27,30,28,29,30,26,27,24,25,29,28,21,1051.txt
7,14,17,15,28,24,22,28,28,21,27,16,26,25,28,27,23,26,27,24,25,25,28,21,1054.txt
7,14,17,15,28,24,22,16,28,28,26,16,29,25,28,28,29,26,25,24,25,16,26,21,1057.txt
7,14,17,15,30,24,22,28,22,26,26,26,27,25,28,29,23,26,27,30,25,25,27,25,1059.txt
7,14,17,15,29,24,22,30,22,26,20,26,27,30,28,28,23,26,27,24,25,25,28,21,1060.txt
7,23,17,15,28,24,22,30,29,28,20,16,29,30,28,28,30,26,27,24,25,27,27,21,1064.txt
7,14,17,15,28,24,22,30,22,28,20,16,29,30,28,28,23,26,27,24,22,25,28,21,1069.txt
7,14,17,15,29,24,22,28,29,30,20,21,27,30,28,28,29,26,25,24,25,25,26,21,1071.txt
7,14,17,15,28,24,22,28,22,28,20,16,29,30,28,29,23,26,27,24,25,28,27,21,1073.txt
26,14,17,15,27,24,22,28,29,30,27,21,27,25,28,28,29,26,25,24,25,27,26,26,1075.txt
7,23,23,15,28,24,22,28,29,28,26,16,29,25,28,28,30,26,27,30,25,25,27,25,1076.txt
7,14,17,15,28,24,22,28,29,21,27,16,26,30,28,27,23,26,27,24,25,25,27,25,1078.txt
7,14,17,15,28,24,22,28,22,21,20,16,26,28,28,27,23,26,27,24,22,25,28,21,1080.txt
7,14,17,23,29,24,22,28,28,30,26,21,27,14,28,28,30,26,27,24,25,29,26,25,1082.txt
7,14,17,15,29,24,22,28,29,26,20,21,27,30,28,28,23,26,27,24,25,25,27,21,1084.txt
7,23,23,23,28,24,22,28,27,21,26,16,26,21,28,27,30,26,27,30,25,27,27,25,1086.txt
7,14,17,15,27,24,22,28,28,30,20,21,27,30,28,28,30,26,27,24,25,28,26,28,1088.txt
7,23,17,15,28,24,22,30,29,28,20,16,29,30,28,27,23,26,27,24,25,25,27,21,1090.txt
27,14,25,22,25,30,22,28,29,21,26,23,22,23,28,27,23,21,27,24,24,25,27,25,1093.txt
7,14,17,15,28,24,22,28,29,21,20,16,26,27,28,27,23,26,27,24,25,25,27,21,1094.txt
25,14,23,15,28,24,22,28,28,21,26,16,26,23,28,27,30,26,27,29,25,27,26,25,1096.txt
7,23,17,15,28,24,22,28,29,21,20,16,26,28,28,27,23,26,27,24,25,25,27,21,1101.txt
7,14,17,15,28,24,22,30,28,21,20,16,26,30,28,27,30,26,27,24,25,27,26,21,1105.txt
7,14,17,15,28,24,22,28,22,30,20,16,29,30,28,28,30,26,27,24,25,25,27,21,1106.txt
3,5,23,23,29,3,11,6,6,6,7,5,27,25,28,29,30,26,27,29,25,28,27,6,1108.txt
7,23,17,15,28,24,22,28,27,21,20,16,26,23,28,27,23,26,27,24,25,25,28,21,1109.txt
7,14,17,15,28,24,22,30,28,28,20,16,29,30,28,27,23,26,27,24,25,25,27,21,1114.txt
7,14,17,15,28,24,22,28,22,21,27,16,26,23,28,29,30,26,27,24,25,25,27,25,1117.txt
7,14,17,15,28,24,22,28,29,28,20,16,29,30,28,28,23,26,27,24,25,25,27,21,1118.txt
7,14,17,15,28,24,22,28,22,21,20,16,26,27,28,27,23,26,27,24,25,25,27,21,1121.txt
27,14,25,22,22,30,22,28,22,21,20,16,22,23,28,29,25,25,27,24,24,25,28,21,1122.txt
7,14,17,15,29,24,22,28,22,26,20,21,27,30,28,28,23,26,27,24,25,25,28,21,1124.txt
7,14,17,15,29,24,22,28,22,26,26,26,27,25,28,28,23,26,27,24,25,27,27,21,1126.txt
7,14,17,23,29,24,22,28,27,30,26,21,27,25,28,28,29,26,25,24,25,27,26,25,1128.txt
7,15,6,5,7,24,15,12,29,21,0,0,21,0,0,11,13,26,27,0,15,0,0,0,1130.txt
7,14,17,15,28,24,22,30,29,28,27,16,29,25,28,28,23,26,27,24,25,25,27,29,1135.txt
7,14,17,15,28,24,22,28,29,28,26,16,29,25,28,28,23,26,27,24,25,28,27,21,1136.txt
7,14,17,15,28,24,22,30,30,21,27,16,26,23,28,27,30,26,27,24,22,25,27,21,1137.txt
7,23,17,15,28,24,22,28,28,28,27,16,29,25,28,29,30,26,27,24,25,25,27,28,1139.txt
7,23,23,15,28,24,22,28,29,28,26,22,29,25,28,27,30,26,27,30,25,25,27,25,1141.txt
26,14,23,23,28,24,28,28,28,28,29,16,29,25,28,27,26,26,27,30,25,29,26,25,1143.txt
7,14,17,15,29,24,22,28,29,26,20,26,27,30,28,28,23,26,27,24,25,28,27,26,1147.txt
7,14,17,15,29,24,22,30,29,26,27,26,27,30,28,28,23,26,27,24,25,28,27,26,1149.txt
26,14,17,15,28,24,22,28,27,21,26,16,6,5,6,5,5,5,5,5,5,5,5,21,1151.txt
7,14,17,15,28,24,22,28,22,28,20,16,29,30,28,29,23,26,27,24,25,25,28,21,1152.txt
7,14,17,15,28,24,22,28,22,28,20,16,26,30,28,27,23,26,27,24,25,25,28,28,1156.txt
7,14,23,23,29,24,22,30,28,26,26,21,27,25,28,28,26,26,27,30,25,28,27,25,1158.txt
7,14,17,15,28,24,22,30,29,28,26,16,29,25,28,28,30,26,27,30,25,27,27,25,1161.txt
7,14,17,15,30,24,22,28,29,26,20,26,27,30,28,28,23,26,27,24,25,25,27,21,1166.txt
7,14,17,15,28,24,22,30,29,21,27,16,26,25,28,27,23,26,27,24,25,25,27,25,1168.txt
28,25,21,26,19,7,14,16,13,13,13,10,9,11,21,10,10,10,10,10,10,14,13,11,1169.txt
7,14,17,15,28,24,22,28,28,21,20,16,5,5,6,5,5,5,5,5,5,5,5,21,1171.txt
7,14,17,15,29,24,22,28,22,26,20,21,27,30,28,28,23,26,27,24,25,28,27,21,1175.txt
7,23,23,15,28,24,22,28,22,21,26,16,26,25,28,27,23,26,27,30,25,25,27,28,1177.txt
7,23,17,15,28,24,22,30,29,28,25,22,29,25,28,27,23,26,27,24,25,27,27,26,1179.txt
7,14,17,15,29,24,22,28,29,30,20,21,27,30,28,28,30,26,27,24,25,25,26,26,1183.txt
7,14,17,15,28,24,22,28,28,21,20,16,26,28,28,29,23,26,27,24,25,25,27,28,1184.txt
7,14,23,15,30,24,22,30,28,29,27,26,27,14,28,27,30,26,27,29,22,25,27,25,1190.txt
7,23,23,23,28,24,22,30,29,28,26,25,29,25,28,28,23,26,27,29,25,25,27,25,1192.txt
17,14,17,15,28,24,22,28,22,28,26,16,29,25,28,28,30,26,27,24,25,25,27,25,1194.txt
27,14,25,22,22,30,22,28,29,21,27,16,22,23,28,27,25,25,27,30,24,25,27,25,1196.txt
25,14,17,15,28,24,22,30,29,21,27,16,24,23,28,27,30,26,27,24,24,25,27,21,1197.txt
7,14,17,15,29,24,22,30,27,26,20,21,27,30,28,28,30,26,27,24,25,28,26,21,1199.txt
7,14,23,23,28,24,22,30,29,30,26,16,29,25,28,28,26,26,27,28,25,27,28,25,1201.txt
26,14,17,15,28,24,22,28,22,28,20,16,29,30,28,27,29,26,27,24,25,27,26,21,1203.txt
7,14,17,15,29,24,22,30,28,26,20,21,27,30,28,28,23,26,27,24,22,25,28,21,1205.txt
29,23,23,23,26,24,22,30,27,30,25,27,27,25,28,28,28,26,25,30,25,30,26,21,1207.txt
15,14,17,15,28,24,22,30,29,30,27,21,27,25,28,28,29,26,27,24,25,27,26,26,1211.txt
7,14,17,15,30,24,22,28,22,30,20,26,27,30,28,28,30,26,25,24,25,27,27,21,1214.txt
7,14,17,15,29,24,22,30,22,30,20,21,27,30,28,28,30,26,25,24,25,28,27,21,1216.txt
7,14,17,15,28,24,22,28,29,21,20,16,26,23,28,29,23,26,27,24,25,25,27,21,1217.txt
7,14,17,15,30,24,22,28,29,26,20,26,27,30,28,28,23,26,27,24,25,25,27,21,1219.txt
7,14,23,15,28,24,22,30,27,21,26,16,26,23,28,27,23,26,27,30,25,25,27,25,1221.txt
7,23,23,15,29,24,22,28,29,26,25,26,27,25,28,27,30,26,27,28,25,25,27,25,1225.txt
7,14,17,15,29,24,22,28,28,30,20,21,27,30,28,29,30,26,27,24,25,28,27,21,1228.txt
7,23,23,23,28,24,22,28,29,21,26,16,26,14,28,27,30,26,27,30,25,27,27,25,1230.txt
7,14,17,15,29,24,22,28,28,26,20,26,27,30,28,29,23,26,27,24,25,28,27,21,1234.txt
7,23,17,15,28,24,22,28,22,21,20,16,26,28,28,27,23,26,27,24,25,25,28,21,1237.txt
7,23,17,15,28,24,22,28,29,21,20,25,26,30,28,29,23,26,27,24,25,25,27,26,1239.txt
26,23,17,23,26,24,22,30,30,29,25,30,27,25,28,26,28,26,25,26,22,29,26,25,1241.txt
25,23,17,15,28,24,22,28,27,21,26,16,26,23,28,27,23,26,27,30,25,25,27,25,1243.txt
7,23,23,23,22,24,22,28,29,21,25,30,26,25,28,27,25,25,27,29,24,25,27,25,1245.txt
7,23,17,15,28,24,22,28,29,21,26,16,26,21,28,27,23,26,27,24,22,25,27,25,1249.txt
7,23,17,15,28,24,22,28,22,26,20,26,27,30,28,28,29,26,27,24,25,25,27,21,1251.txt
13,23,17,23,29,24,29,30,28,26,29,26,27,14,28,28,26,26,25,24,25,28,27,25,1254.txt
25,23,25,15,28,24,22,28,27,21,27,16,23,23,28,29,23,25,27,24,24,25,27,25,1255.txt
7,14,17,15,28,24,22,30,27,21,26,16,26,25,28,27,23,26,27,24,22,28,27,21,1267.txt
7,14,17,15,28,24,22,28,30,28,26,16,29,25,28,29,23,26,27,24,25,25,27,25,1271.txt
28,25,17,26,19,27,25,21,25,24,18,14,16,25,24,15,15,13,30,12,12,10,10,9,1274.txt
27,15,6,5,7,30,15,29,28,21,0,0,21,0,0,11,24,25,27,0,15,26,0,0,1276.txt
26,23,23,23,29,24,29,30,27,30,29,26,27,25,28,28,26,26,27,28,25,25,27,25,1278.txt
7,14,17,15,28,24,22,28,22,21,27,16,26,25,28,27,23,26,27,24,25,25,27,25,1280.txt
28,25,17,26,19,27,25,21,25,24,18,14,16,25,24,15,15,30,30,12,12,10,10,9,1283.txt
28,25,21,26,19,27,25,21,25,24,18,14,16,14,24,15,15,13,30,12,27,10,10,9,1285.txt
7,14,23,23,28,24,22,28,22,21,26,16,26,14,28,27,23,26,27,28,25,25,27,25,1287.txt
7,14,17,15,29,24,22,28,28,26,20,21,27,30,28,28,30,26,27,24,25,28,30,21,1288.txt
7,23,23,23,29,24,27,28,27,29,25,30,27,25,28,30,26,26,27,26,25,25,27,25,1290.txt
26,23,23,15,22,24,22,30,27,27,25,30,27,25,28,26,25,25,27,26,29,30,27,25,1292.txt
7,23,17,15,30,24,22,28,29,26,20,26,27,30,28,28,23,26,27,24,25,25,27,25,1295.txt
7,14,17,15,28,24,22,28,28,28,26,16,29,25,28,29,23,26,27,24,25,25,27,21,1297.txt
7,14,17,15,28,24,22,28,22,28,26,16,29,25,28,28,29,26,25,24,25,27,26,25,1300.txt
7,23,17,15,29,24,22,28,28,28,25,30,27,30,28,29,28,26,27,24,25,29,27,26,1302.txt
7,14,17,15,28,24,22,30,22,26,20,21,27,30,28,28,23,26,27,24,22,28,27,21,1303.txt
7,14,23,23,28,24,22,30,29,28,26,16,29,25,28,28,23,26,27,30,25,25,27,25,1305.txt
7,14,17,15,28,24,22,28,28,28,20,16,29,30,28,29,23,26,27,24,25,28,27,21,1307.txt
7,14,23,23,28,24,22,28,22,21,26,16,26,23,28,27,26,26,27,28,22,25,27,25,1309.txt
7,14,17,15,28,24,22,30,29,28,20,16,29,30,28,28,30,26,27,24,25,27,27,21,1311.txt
7,14,17,15,28,24,22,28,22,26,20,21,27,30,28,28,23,26,27,24,25,28,28,21,1314.txt
7,14,17,15,29,24,22,28,29,30,20,21,27,30,28,28,30,26,27,24,25,28,27,21,1315.txt
7,14,17,15,28,24,22,28,28,21,20,16,26,28,28,27,23,26,27,24,25,25,27,21,1317.txt
7,14,17,15,28,24,22,28,29,21,26,16,26,23,28,29,23,26,27,24,25,25,27,21,1318.txt
7,14,17,15,29,24,22,30,28,26,20,21,27,30,28,28,23,26,27,24,22,25,27,21,1320.txt
7,14,17,15,30,24,22,30,28,30,20,26,27,30,28,28,30,26,27,24,25,28,27,21,1323.txt
7,14,17,15,28,24,22,28,22,28,20,16,29,30,28,28,23,26,27,24,25,25,28,25,1325.txt
7,14,23,15,30,24,22,28,27,30,26,21,27,25,28,28,30,26,27,29,25,25,27,25,1327.txt
7,14,23,23,28,24,22,30,29,21,26,16,26,25,28,27,30,26,27,30,25,25,26,25,1329.txt
7,14,23,15,29,24,22,28,28,26,26,26,27,25,28,29,30,26,27,30,25,25,27,25,1331.txt
7,14,17,15,29,24,22,30,22,26,27,21,27,25,28,28,23,26,27,24,25,28,27,21,1332.txt
7,23,17,15,28,24,22,28,29,26,20,26,27,30,28,28,23,26,27,24,25,25,27,21,1335.txt
7,23,23,23,22,24,22,28,28,21,25,30,26,21,28,27,25,25,27,27,24,25,27,25,1337.txt
7,23,17,15,30,24,22,30,22,26,26,26,27,25,28,29,30,26,27,24,25,28,27,21,1339.txt
7,14,17,15,28,24,22,30,28,26,20,16,29,30,28,29,23,26,27,24,25,25,28,21,1341.txt
7,14,17,15,30,24,22,28,22,26,20,21,27,30,28,29,23,26,27,24,25,28,27,21,1344.txt
7,14,17,15,28,24,22,28,22,28,20,16,29,30,28,27,30,26,27,24,22,25,27,21,1346.txt
7,14,17,15,28,24,22,28,28,28,27,26,27,25,28,29,23,26,27,24,25,25,27,21,1348.txt
7,23,17,15,22,24,22,28,27,28,25,30,29,30,28,27,25,25,25,26,29,27,27,21,1351.txt
7,14,17,15,28,24,22,28,22,28,20,16,29,30,28,28,23,26,27,24,25,25,28,21,1352.txt
7,14,17,15,29,24,22,28,28,26,20,21,27,30,28,29,23,26,27,24,25,28,27,26,1354.txt
7,14,17,15,29,24,22,30,28,26,26,21,27,25,28,28,23,26,27,24,25,28,27,21,1356.txt
7,14,23,23,29,24,22,28,29,26,26,21,27,25,28,28,23,26,27,29,25,25,27,25,1358.txt
7,14,23,23,29,24,22,30,28,30,26,21,27,14,28,28,26,26,25,30,22,27,26,25,1360.txt
7,23,17,15,28,24,22,28,29,21,26,16,26,23,28,27,23,26,27,24,25,25,27,21,1362.txt
7,14,23,23,28,24,22,28,22,26,26,16,29,25,28,28,23,26,27,30,25,25,27,25,1364.txt
7,14,17,15,28,24,22,28,22,21,20,16,26,28,28,27,29,26,27,24,25,27,26,25,1367.txt
28,25,25,26,19,27,25,21,25,24,18,14,16,23,24,15,15,13,12,12,27,10,10,9,1368.txt
7,14,17,15,28,24,22,30,22,21,27,16,26,25,28,27,30,26,27,24,25,27,27,21,1371.txt
7,14,23,15,28,24,28,28,27,21,29,22,26,25,28,27,23,26,27,29,25,25,27,25,1372.txt
7,14,23,15,29,24,22,28,28,26,30,21,27,25,28,28,23,26,27,30,25,25,27,27,1375.txt
7,14,17,15,28,24,22,28,29,28,26,22,29,25,28,28,23,26,27,24,25,25,27,25,1377.txt
7,14,17,15,28,24,22,28,29,28,26,16,29,25,28,28,23,26,27,24,25,25,27,29,1379.txt
28,24,25,25,19,27,25,21,25,24,18,14,16,23,24,15,15,29,12,12,27,10,10,9,1380.txt
7,14,23,15,29,24,30,28,29,26,26,21,27,25,28,28,23,26,27,30,25,28,27,25,1383.txt
7,23,23,15,28,24,22,28,22,21,26,16,26,23,28,27,30,26,27,30,25,27,27,25,1389.txt
7,14,23,15,28,24,22,28,29,28,26,16,29,25,28,27,30,26,25,29,25,30,26,25,1390.txt
7,14,17,15,28,24,22,30,22,21,27,16,26,25,28,27,23,26,27,30,25,25,27,25,1392.txt
7,14,17,15,28,24,22,28,29,28,20,16,29,30,28,28,23,26,27,24,25,25,27,21,1395.txt
7,14,17,15,28,24,22,28,28,26,26,21,27,25,28,29,23,26,27,24,25,28,27,29,1396.txt
26,14,17,23,28,24,22,28,29,28,26,16,29,25,28,29,29,26,27,24,25,27,26,21,1398.txt
7,14,17,15,28,24,22,30,29,26,27,26,27,25,28,28,23,26,27,24,25,28,27,21,1400.txt
7,14,17,15,30,24,22,28,29,30,26,21,27,25,28,28,30,26,25,24,25,30,26,25,1402.txt
7,14,17,15,28,24,22,28,22,21,26,16,26,25,28,27,23,26,27,24,25,25,28,25,1405.txt
7,14,17,15,30,24,22,30,28,26,20,21,27,30,28,28,23,26,27,24,22,25,27,21,1407.txt
7,14,17,15,28,24,22,28,29,21,20,16,26,27,28,27,23,26,27,24,25,25,27,21,1409.txt
26,23,23,23,24,24,30,30,30,30,25,26,27,25,28,28,26,26,25,29,22,29,26,25,1412.txt
7,14,17,15,28,24,22,28,22,28,27,16,29,25,28,28,23,26,27,24,25,25,28,21,1416.txt
2,5,23,23,30,3,11,6,6,6,6,5,27,25,28,28,23,26,27,28,25,28,27,7,1418.txt
7,14,17,15,28,24,22,28,22,21,20,16,26,24,28,27,30,26,27,24,25,25,28,21,1421.txt
7,14,23,23,28,24,22,28,29,26,26,16,29,14,28,28,23,26,27,28,25,28,27,25,1422.txt
7,14,17,15,28,24,22,28,22,21,20,16,26,28,28,27,23,26,27,24,25,25,28,21,1425.txt
7,14,17,15,28,24,22,28,29,21,20,16,26,28,28,29,23,26,27,24,25,25,27,27,1427.txt
7,14,17,15,28,24,22,30,29,21,20,16,26,23,28,27,23,26,27,24,22,25,27,28,1429.txt
7,14,17,24,28,24,22,28,29,21,20,16,26,23,28,27,30,26,27,24,25,25,27,21,1431.txt
7,14,17,15,28,24,22,28,28,28,20,16,29,30,28,29,23,26,27,24,25,25,27,21,1433.txt
7,14,17,15,29,24,22,28,28,30,26,21,27,25,28,28,30,26,27,30,25,29,27,21,1434.txt
7,14,17,15,29,24,22,28,28,30,26,21,27,25,28,28,30,26,27,30,25,29,27,21,1436.txt
7,14,17,15,27,24,22,28,29,30,26,21,27,25,28,28,29,26,25,24,25,30,26,26,1439.txt
7,14,17,15,28,24,22,28,28,30,27,21,27,30,28,28,30,26,27,24,25,25,27,21,1441.txt
7,14,17,15,28,24,22,30,22,21,27,16,26,23,28,27,23,26,27,24,25,25,27,21,1442.txt
25,14,17,15,28,24,22,30,27,21,27,24,26,23,28,27,23,26,27,24,25,25,27,26,1444.txt
7,14,23,23,28,24,30,30,29,26,26,21,27,25,28,28,30,26,27,30,25,25,27,25,1446.txt
17,14,23,23,28,24,22,28,29,28,26,16,29,25,28,28,22,23,27,30,25,25,27,25,1448.txt
7,14,17,15,28,24,22,28,22,28,20,16,29,30,28,28,23,26,27,24,25,25,28,21,1451.txt
7,14,17,15,28,24,22,28,22,21,27,16,26,30,28,27,23,26,27,24,25,25,27,25,1453.txt
7,14,23,23,29,24,29,28,29,26,29,26,27,25,28,28,26,26,27,28,25,28,27,25,1454.txt
7,23,23,15,28,24,22,28,29,21,26,22,26,25,28,27,23,26,27,30,25,25,27,25,1456.txt
7,14,17,15,30,24,22,28,29,30,26,21,27,25,28,28,29,26,27,24,25,27,26,25,1458.txt
7,14,17,15,28,24,22,28,30,26,20,16,29,30,28,28,23,26,27,24,25,25,26,21,1460.txt
7,14,23,15,28,24,22,28,28,21,26,16,26,25,28,27,23,26,27,30,22,25,27,21,1462.txt
7,23,17,15,28,24,22,28,29,28,20,16,29,30,28,28,23,26,27,24,25,25,27,21,1465.txt
7,14,17,15,30,24,22,28,22,30,20,26,27,30,28,28,30,26,27,24,25,27,28,21,1467.txt
7,14,17,15,29,24,22,28,22,26,27,26,27,25,28,29,30,26,27,24,25,28,27,25,1469.txt
7,23,23,23,26,24,22,30,28,26,25,26,27,25,28,29,23,26,27,30,25,28,26,26,1470.txt
25,23,21,23,28,24,22,28,22,21,26,16,23,14,28,27,25,25,27,24,24,25,27,25,1473.txt
7,23,17,15,28,24,22,28,22,21,26,16,26,25,28,27,23,26,27,24,25,25,28,21,1475.txt
7,14,23,15,29,24,22,28,29,26,26,21,27,25,28,28,23,26,27,30,25,28,27,25,1477.txt
7,14,17,23,28,24,22,28,22,21,26,16,26,23,28,29,23,26,27,30,25,25,27,25,1480.txt
6,14,24,15,30,24,27,28,28,28,29,26,27,25,28,29,23,26,27,24,25,25,27,26,1482.txt
25,14,17,15,28,24,22,28,22,21,26,16,25,23,28,27,23,26,27,24,28,25,27,25,1484.txt
25,14,17,15,28,24,22,28,28,21,20,16,26,23,28,27,30,26,27,24,25,28,27,21,1487.txt
7,14,23,15,29,24,22,28,28,26,27,21,27,30,28,29,23,26,27,30,25,28,27,25,1490.txt
7,14,17,15,28,24,22,28,22,26,27,21,27,30,28,28,23,26,27,24,25,25,28,21,1491.txt
28,25,17,26,19,7,14,16,13,13,13,10,9,11,21,10,10,10,10,10,10,14,12,12,1494.txt
7,23,17,15,29,24,22,28,28,29,25,30,27,25,28,29,28,26,27,24,25,25,26,21,1497.txt
7,14,17,15,28,24,22,30,29,21,20,16,26,23,28,27,23,26,27,24,25,25,27,21,1499.txt
7,14,17,15,28,24,22,30,29,26,20,16,29,30,28,28,23,26,27,24,25,28,27,21,1502.txt
7,14,17,15,28,24,22,28,29,21,27,23,26,25,28,28,23,26,27,24,25,25,27,26,1504.txt
7,23,23,23,29,24,28,30,27,26,29,26,27,25,28,28,26,26,27,29,25,28,27,25,1505.txt
7,14,17,15,29,24,22,28,22,26,20,21,27,30,28,28,23,26,27,24,25,28,30,21,1507.txt
7,14,17,15,29,24,29,28,28,26,29,26,27,25,28,29,23,26,27,24,25,25,27,25,1509.txt
7,23,17,15,28,24,22,28,27,21,20,16,26,23,28,27,23,26,27,24,25,25,27,21,1511.txt
25,14,23,15,28,24,22,28,28,21,26,22,26,23,28,27,23,26,27,30,25,25,27,25,1513.txt
7,14,17,15,28,24,22,28,29,21,26,16,26,23,28,27,23,26,27,24,25,25,27,25,1515.txt
7,14,23,15,28,24,22,30,28,28,27,16,29,25,28,27,30,26,27,30,25,25,27,25,1518.txt
7,14,23,23,29,24,22,30,28,26,26,21,27,25,28,28,23,26,27,30,22,28,27,25,1519.txt
7,14,17,15,28,24,22,28,28,21,26,16,26,23,28,29,23,26,27,24,25,25,27,28,1521.txt
7,14,23,23,28,24,22,28,22,21,26,16,26,25,28,27,23,26,27,28,25,25,27,25,1523.txt
7,14,17,15,28,24,22,28,22,21,27,16,26,23,28,29,23,26,27,24,25,25,28,21,1526.txt
7,14,17,15,28,24,22,30,30,28,26,16,29,25,28,28,30,26,27,30,25,29,27,21,1528.txt
7,23,17,15,30,24,22,28,29,28,25,26,27,25,28,29,30,26,27,24,25,27,26,21,1529.txt
7,14,23,23,28,24,22,28,29,21,26,16,26,14,28,27,23,26,27,28,25,25,27,25,1532.txt
7,14,23,23,28,24,22,30,27,26,26,21,27,25,28,28,30,26,27,30,25,28,27,25,1534.txt
28,25,17,26,19,27,25,21,25,24,18,14,16,25,24,15,15,13,30,12,12,10,10,9,1536.txt
7,14,23,23,28,24,22,28,29,21,26,16,26,14,28,28,26,26,27,28,25,25,27,25,1538.txt
7,14,17,15,29,24,22,28,22,26,20,21,27,30,28,28,23,26,27,24,25,25,27,21,1540.txt
7,14,17,15,28,24,22,28,28,21,20,16,26,30,28,27,23,26,27,24,25,25,27,21,1543.txt
7,14,17,15,28,24,22,30,28,21,20,16,26,23,28,27,23,26,27,24,22,28,28,21,1545.txt
28,25,25,26,19,27,25,21,25,24,18,14,16,28,24,15,15,13,30,12,27,10,10,9,1546.txt
7,14,17,15,28,24,22,28,30,21,20,16,26,30,28,29,23,26,27,24,25,25,27,21,1548.txt
7,14,17,15,28,24,22,28,27,21,26,16,26,25,28,27,30,26,27,24,25,27,27,21,1551.txt
7,14,17,15,28,24,22,28,29,26,27,16,29,25,28,28,23,26,27,30,25,25,27,25,1552.txt
7,14,23,23,30,24,22,28,22,26,26,21,27,25,28,28,23,26,27,30,25,25,27,25,1556.txt
7,14,17,15,29,24,22,30,28,26,20,21,27,30,28,28,23,26,27,24,22,28,27,21,1558.txt
7,14,17,15,28,24,22,28,22,21,20,16,26,23,28,27,23,26,27,24,25,28,27,21,1561.txt
7,14,17,15,28,24,22,30,22,26,20,26,27,30,28,28,23,26,27,24,25,25,27,21,1563.txt
7,14,23,15,29,24,22,28,29,26,26,21,27,25,28,28,23,26,27,30,25,25,27,26,1565.txt
7,14,17,15,28,24,22,28,29,28,26,16,29,25,28,28,30,26,27,24,25,25,27,25,1567.txt
7,14,17,15,28,24,22,28,22,21,20,16,26,27,28,27,23,26,27,24,22,25,28,21,1570.txt
7,14,17,15,28,24,22,28,22,21,27,16,26,25,28,27,23,26,27,24,25,25,28,21,1572.txt
7,14,17,15,29,24,22,28,29,26,30,21,27,25,28,28,23,26,27,24,22,25,27,21,1574.txt
7,14,17,15,28,24,22,28,28,28,27,16,26,25,28,28,30,26,27,24,25,25,28,21,1581.txt
7,14,17,15,30,24,22,30,28,26,20,26,27,30,28,28,23,26,27,24,25,25,27,26,1583.txt
7,14,23,23,28,24,22,30,27,21,26,16,26,25,28,27,26,26,27,28,25,27,27,25,1585.txt
7,23,23,23,28,24,22,28,22,21,26,16,26,21,28,27,23,26,27,29,25,25,27,25,1587.txt
7,14,17,15,28,24,22,28,29,21,20,16,26,27,28,27,23,26,27,24,25,25,27,21,1589.txt
26,14,17,15,29,24,22,28,29,30,20,26,27,30,28,29,30,26,27,24,25,28,27,26,1590.txt
7,14,17,15,28,24,22,28,29,21,27,16,26,25,28,27,23,26,27,24,25,25,27,25,1594.txt
7,14,23,15,29,24,22,28,28,26,26,21,27,25,28,29,23,26,27,30,25,25,28,25,1596.txt
7,14,17,15,28,24,22,28,29,21,20,16,26,27,28,27,23,26,27,24,25,28,27,21,1598.txt
7,14,17,15,28,24,22,30,28,28,27,16,29,25,28,27,23,26,27,24,22,25,28,25,1600.txt
25,14,23,23,28,24,22,28,22,21,26,16,26,23,28,27,23,26,27,30,25,25,27,25,1602.txt
7,14,17,15,28,24,22,28,22,26,26,26,27,25,28,28,23,26,27,24,25,28,28,25,1604.txt
7,14,17,15,28,24,22,28,29,21,26,16,26,23,28,27,23,26,27,24,25,25,27,25,1605.txt
7,23,17,23,28,24,22,28,29,21,26,16,26,23,28,29,30,26,27,30,25,28,27,21,1608.txt
7,14,17,15,28,24,22,28,22,21,27,16,26,23,28,29,23,26,27,24,25,25,27,25,1610.txt
7,14,23,23,28,24,22,30,28,28,26,16,29,25,28,28,23,26,27,29,25,25,28,25,1612.txt
7,14,17,15,29,24,22,28,29,26,20,26,27,30,28,28,23,26,27,24,25,28,27,21,1615.txt
7,14,17,15,29,24,22,28,29,26,27,21,27,25,28,28,23,26,27,24,25,25,27,25,1616.txt
17,14,23,15,28,24,22,28,29,28,20,16,29,30,28,29,23,26,27,29,25,25,27,25,1618.txt
7,23,23,15,30,24,22,28,22,30,26,26,27,25,28,28,30,26,27,30,25,25,27,25,1622.txt
7,14,17,15,28,24,22,28,28,26,27,16,29,30,28,29,23,26,27,24,25,28,27,21,1623.txt
7,14,17,15,30,24,22,28,29,26,20,21,27,30,28,28,23,26,27,24,25,28,27,21,1626.txt
7,14,17,15,28,24,22,28,29,28,20,16,29,30,28,28,23,26,27,24,25,25,27,21,1629.txt
7,14,23,15,28,24,22,30,28,21,26,16,26,23,28,27,23,26,27,30,25,25,28,25,1631.txt
7,14,17,15,29,24,22,28,22,26,27,21,27,25,28,28,23,26,27,24,25,25,27,25,1632.txt
25,14,23,23,28,24,22,28,29,21,30,16,26,23,28,27,23,26,27,30,25,25,27,25,1637.txt
25,14,23,15,28,24,22,28,27,21,26,16,25,23,28,27,23,26,27,30,24,25,27,28,1639.txt
7,23,17,15,29,24,22,30,28,26,20,26,27,30,28,28,23,26,27,24,25,25,27,21,1641.txt
7,14,17,15,28,24,22,28,28,28,20,16,29,30,28,29,23,26,27,24,25,25,28,25,1643.txt
25,14,17,15,28,24,22,28,29,21,27,16,26,23,28,27,23,26,27,24,25,28,27,21,1645.txt
25,14,17,15,28,24,22,28,28,21,20,16,25,23,28,29,23,26,27,24,25,25,28,21,1647.txt
7,14,17,15,29,24,22,30,28,26,26,21,27,25,28,28,23,26,27,24,25,28,27,21,1650.txt
7,14,17,15,28,24,22,28,29,21,27,25,26,25,28,27,23,26,27,24,25,25,27,26,1652.txt
7,14,17,15,28,24,22,28,29,28,20,16,29,30,28,29,30,26,27,24,25,25,27,21,1654.txt
7,14,23,15,28,24,22,30,22,21,26,16,26,25,28,27,23,26,27,29,25,25,27,25,1655.txt
7,23,17,15,28,24,22,28,28,21,20,16,26,23,28,27,23,26,27,24,22,25,27,21,1657.txt
7,14,17,15,28,24,22,28,22,28,20,16,29,30,28,28,23,26,27,24,25,28,27,21,1660.txt
26,14,23,23,28,24,28,30,28,28,29,16,29,25,28,28,29,26,25,30,25,27,27,25,1662.txt
7,14,17,15,28,24,22,28,29,21,27,16,26,23,28,29,23,26,27,24,25,25,27,25,1663.txt
7,14,23,15,28,24,22,28,29,21,26,16,26,25,28,27,23,26,27,29,25,25,27,25,1666.txt
7,23,23,23,28,24,22,28,22,21,26,16,26,14,28,27,26,26,27,28,25,25,28,25,1667.txt
7,14,17,15,28,24,22,28,22,21,27,16,26,30,28,27,23,26,27,24,25,25,27,21,1669.txt
7,14,17,15,29,24,22,28,29,26,20,21,27,30,28,28,30,26,27,24,25,28,27,21,1671.txt
7,14,17,15,28,24,22,28,29,28,20,16,29,30,28,27,23,26,27,24,25,25,27,21,1673.txt
7,14,17,15,28,24,22,28,29,21,27,16,26,25,28,29,23,26,27,30,25,25,27,21,1676.txt
25,14,23,15,28,24,22,30,22,21,27,16,26,23,28,27,23,26,27,30,25,25,28,25,1677.txt
24,22,25,29,22,29,22,28,29,21,26,16,20,23,28,27,25,25,27,30,24,28,27,29,1680.txt
7,23,23,23,28,24,22,28,28,21,25,30,26,25,28,29,26,21,27,30,24,29,27,25,1682.txt
7,23,17,15,28,24,22,28,28,21,27,16,26,23,28,27,23,25,27,24,24,25,27,21,1684.txt
7,14,17,15,28,24,22,28,22,21,20,16,26,30,28,27,23,26,27,24,25,25,28,21,1686.txt
7,14,17,15,29,24,22,30,22,26,20,21,27,30,28,28,23,26,27,24,25,28,28,21,1692.txt
7,14,17,15,28,24,22,28,29,26,27,26,27,25,28,28,23,26,27,24,25,28,27,21,1694.txt
7,14,17,15,30,24,22,30,28,26,20,21,27,30,28,28,23,26,27,24,25,28,27,21,1696.txt
7,14,17,15,28,24,22,28,28,28,27,16,29,25,28,29,23,26,27,24,25,25,27,21,1698.txt
27,23,25,21,22,30,22,28,22,21,20,16,20,23,28,27,25,25,27,24,24,25,27,21,1699.txt
7,14,17,15,28,24,22,28,29,26,27,26,27,25,28,29,23,26,27,24,25,25,27,25,1701.txt
25,23,17,15,28,24,22,30,22,21,20,16,26,23,28,29,23,26,27,24,25,25,27,21,1705.txt
7,14,17,15,28,24,22,28,22,28,20,16,29,30,28,27,23,26,27,24,25,25,27,21,1707.txt
7,14,17,15,29,24,22,30,28,26,20,21,27,30,28,28,23,26,27,24,25,25,27,21,1709.txt
7,23,17,15,28,24,22,28,22,28,20,16,29,30,28,28,30,26,27,24,25,25,27,21,1715.txt
7,23,17,15,28,24,22,28,29,21,26,16,26,23,28,29,23,26,27,24,25,28,27,25,1717.txt
7,14,17,15,29,24,22,28,28,26,20,26,27,30,28,29,23,26,27,24,25,28,28,21,1720.txt
7,14,17,15,29,24,22,28,29,26,20,21,27,30,28,28,23,26,27,24,25,28,27,21,1723.txt
7,14,17,15,28,24,22,30,29,26,20,16,29,30,28,28,23,26,27,24,22,25,27,21,1725.txt
7,14,17,15,28,24,22,28,29,26,20,26,27,30,28,28,23,26,27,24,25,25,27,21,1727.txt
7,14,17,15,28,24,22,28,22,21,26,16,26,23,28,27,23,26,27,24,25,25,27,21,1728.txt
7,14,17,15,28,24,22,30,28,26,20,26,27,30,28,28,23,26,27,24,25,28,27,21,1732.txt
7,14,17,15,29,24,22,30,22,26,27,21,27,25,28,28,23,26,27,24,25,28,27,25,1734.txt
24,14,25,29,22,30,22,28,22,21,27,16,20,23,28,27,25,25,27,24,24,28,28,21,1735.txt
7,14,17,15,28,24,22,28,29,21,20,16,26,23,28,27,23,26,27,24,25,25,27,21,1737.txt
7,14,17,15,30,24,22,30,27,26,27,21,27,30,28,28,23,26,27,24,25,25,27,21,1739.txt
7,14,17,15,28,24,22,28,29,21,26,16,26,25,28,28,30,26,27,24,25,25,26,21,1744.txt
7,14,23,23,29,24,22,28,29,30,26,26,27,25,28,28,30,26,27,28,25,27,27,25,1745.txt
7,14,23,15,28,24,22,28,22,21,26,16,26,25,28,27,23,26,27,30,22,25,28,25,1747.txt
25,14,23,23,28,24,22,28,27,21,30,16,24,23,28,27,23,21,27,30,24,25,27,29,1749.txt
7,14,17,15,28,24,22,28,27,21,26,16,26,25,28,29,23,26,27,24,25,28,27,25,1751.txt
7,14,23,23,29,24,30,28,29,26,29,21,27,25,28,28,26,26,27,28,25,25,27,25,1755.txt
7,14,17,15,29,24,22,28,29,26,20,21,27,30,28,28,30,26,27,24,25,25,27,21,1759.txt
7,14,17,15,28,24,22,28,28,21,27,16,26,23,28,29,23,26,27,24,25,25,27,21,1762.txt
7,14,17,24,29,24,22,28,28,30,25,30,27,25,28,29,28,26,27,27,25,25,27,21,1764.txt
7,14,17,23,28,24,22,28,29,21,26,16,26,14,28,27,26,26,27,24,22,25,27,25,1765.txt
28,25,17,26,19,27,25,21,25,24,18,14,16,25,24,15,15,30,30,12,12,10,10,9,1769.txt
7,14,17,15,28,24,22,28,27,21,27,16,26,28,28,27,23,26,27,24,25,25,27,21,1771.txt
7,14,23,15,29,24,22,28,28,30,27,21,27,25,28,29,30,26,27,30,25,25,27,21,1774.txt
7,14,17,15,28,24,22,28,29,21,27,22,26,25,28,27,23,26,27,24,25,25,27,26,1775.txt
7,14,17,15,30,24,22,28,22,26,20,26,27,30,28,29,23,26,27,24,25,25,28,21,1778.txt
25,14,17,15,28,24,22,28,28,21,26,16,26,23,28,27,23,26,27,24,25,25,27,28,1780.txt
7,14,17,15,30,24,22,28,28,26,27,21,27,25,28,29,23,26,27,24,25,28,28,21,1783.txt
7,14,23,15,28,24,22,30,29,28,26,16,26,25,28,27,23,26,27,30,25,25,27,21,1784.txt
25,14,17,15,28,24,22,30,29,21,20,16,23,23,28,27,30,21,27,24,24,27,27,25,1787.txt
7,23,17,15,28,24,22,28,28,21,20,16,26,21,28,29,23,26,27,24,25,28,27,21,1789.txt
25,14,17,15,28,24,22,28,22,21,20,16,26,23,28,27,29,26,25,24,25,27,26,21,1791.txt
7,14,23,23,28,24,22,30,29,26,26,16,29,25,28,28,23,26,27,30,25,25,27,28,1794.txt
25,14,23,23,28,24,22,28,29,21,26,16,26,23,28,27,23,26,27,30,25,25,27,25,1798.txt
6,23,23,23,29,1,1,30,27,26,29,26,27,25,28,28,26,26,27,28,25,28,27,25,1800.txt
25,14,17,15,28,24,22,28,29,21,20,16,26,23,28,27,23,26,27,24,25,25,27,25,1801.txt
7,14,17,15,28,24,22,28,22,21,20,16,26,30,28,27,30,26,27,24,25,25,27,29,1803.txt
2,5,23,15,28,3,11,6,6,6,6,5,29,25,28,28,23,26,27,29,25,25,27,7,1805.txt
7,14,17,15,29,24,22,28,29,26,20,21,27,30,28,28,23,26,27,24,25,25,27,27,1808.txt
28,25,25,26,19,27,25,21,25,24,18,14,16,23,24,15,15,13,12,12,27,10,10,9,1810.txt
7,14,17,15,28,24,22,28,27,21,26,16,26,23,28,27,23,26,27,24,25,25,27,28,1812.txt
7,14,17,15,28,24,22,28,29,28,20,16,29,30,28,28,23,26,27,24,25,25,27,21,1814.txt
7,14,17,15,27,24,22,28,29,30,20,21,27,30,28,28,30,26,27,24,25,28,26,21,1816.txt
7,23,23,23,27,24,22,28,29,30,25,30,27,25,28,28,28,26,27,26,25,28,26,21,1818.txt
2,27,23,15,28,3,11,6,6,6,6,5,26,23,28,29,23,26,27,30,25,25,27,7,1820.txt
25,14,17,15,28,24,22,28,29,21,26,16,26,23,28,29,23,26,27,24,25,25,27,21,1824.txt
7,14,17,15,28,24,22,30,28,28,20,16,29,30,28,28,23,26,27,24,22,25,28,21,1825.txt
7,23,17,15,28,24,22,28,22,21,26,16,26,23,28,27,23,26,27,24,25,25,27,21,1827.txt
7,23,23,23,28,24,28,28,29,26,29,23,29,14,28,28,30,26,27,28,25,28,27,25,1830.txt
7,14,17,15,28,24,22,28,29,21,20,16,26,30,28,27,30,26,27,24,25,25,27,21,1831.txt
7,14,17,15,29,24,22,28,22,26,20,21,27,30,28,28,23,26,27,24,25,25,28,21,1833.txt
7,14,23,23,29,24,22,28,27,26,26,21,27,25,28,28,26,26,27,30,25,25,27,25,1836.txt
7,14,17,15,29,24,22,30,29,26,27,21,27,30,28,28,23,26,27,24,25,25,27,21,1838.txt
26,23,23,23,26,24,22,28,28,28,25,30,27,25,28,29,28,26,27,27,25,29,26,25,1840.txt
7,14,17,15,28,24,22,30,28,28,20,16,29,30,28,29,30,26,27,24,25,27,27,21,1842.txt
7,14,17,15,29,24,22,30,29,26,20,21,27,30,28,28,23,26,27,24,25,28,27,21,1844.txt
7,14,17,15,29,24,22,30,29,30,20,26,27,30,28,28,30,26,27,24,25,25,27,21,1847.txt
7,14,17,15,28,24,22,28,22,21,20,16,26,27,28,27,29,26,27,24,25,27,28,21,1850.txt
26,14,17,15,29,24,22,28,22,30,20,21,27,30,28,28,29,26,27,24,25,30,26,21,1851.txt
7,14,17,15,28,24,22,28,29,21,20,16,26,23,28,27,30,21,27,24,29,27,26,21,1854.txt
17,14,23,15,28,24,22,28,23,28,27,16,26,30,28,28,23,22,15,30,25,25,28,25,1855.txt
7,14,17,15,28,24,22,30,28,30,20,16,29,30,28,28,29,26,27,24,25,27,27,21,1858.txt
7,14,17,15,28,24,22,28,27,21,20,16,26,30,28,28,30,26,27,24,25,27,27,21,1860.txt
7,23,23,15,28,24,22,28,29,21,27,16,26,23,28,29,23,26,27,30,25,25,27,25,1861.txt
27,23,25,30,22,30,22,28,29,21,20,16,20,23,28,27,25,25,27,24,24,25,27,21,1863.txt
7,14,23,15,28,24,22,28,22,26,20,16,29,30,28,29,23,26,27,28,25,25,27,25,1865.txt
7,14,17,15,30,24,22,30,28,26,20,21,27,30,28,28,30,26,27,24,22,28,27,21,1867.txt
7,14,17,15,28,24,22,28,29,28,20,16,29,30,28,29,23,26,27,24,25,25,27,21,1870.txt
17,14,17,15,28,24,22,28,28,28,20,16,29,30,28,27,30,26,27,24,25,25,28,25,1872.txt
7,23,17,15,22,24,22,28,22,21,25,29,26,21,28,27,25,25,27,26,24,28,28,25,1874.txt
7,14,17,15,28,24,22,28,29,28,20,16,26,30,28,27,29,26,27,24,25,25,27,21,1876.txt
7,14,23,23,30,24,22,30,29,30,26,21,27,15,28,28,26,26,27,28,25,27,26,25,1879.txt
7,14,17,15,29,24,22,28,28,26,26,21,27,25,28,28,23,26,27,24,25,28,27,29,1880.txt
7,14,17,15,28,24,22,28,29,21,27,16,26,23,28,27,23,26,27,24,25,25,27,21,1884.txt
7,14,23,23,30,24,22,28,28,30,26,21,27,25,28,28,29,26,25,28,25,27,26,25,1885.txt
7,14,17,15,29,24,22,28,29,30,20,26,27,30,28,28,30,26,27,24,25,25,27,21,1887.txt
26,14,17,15,29,24,22,30,22,30,20,21,27,30,28,28,29,26,25,24,25,30,26,21,1890.txt
7,14,17,15,28,24,22,28,29,28,20,22,29,30,28,29,23,26,27,24,25,25,27,25,1892.txt
7,23,23,15,28,24,22,28,29,21,26,22,26,25,28,27,23,26,27,30,25,25,27,25,1894.txt
7,14,23,23,28,24,22,28,28,21,26,16,26,23,28,29,30,26,27,30,25,25,27,25,1898.txt
28,25,25,26,19,27,25,21,25,24,18,14,16,21,24,15,15,30,30,12,27,10,10,9,1900.txt
7,14,17,15,28,24,22,30,29,28,20,16,29,30,28,28,23,26,27,24,25,25,27,25,1901.txt
7,14,17,15,28,24,22,28,29,28,20,16,28,30,28,29,29,26,27,24,25,27,26,21,1903.txt
7,14,17,15,28,24,22,28,22,21,20,16,26,28,28,27,30,26,27,24,25,27,26,21,1906.txt
7,23,23,23,28,24,22,28,29,21,26,22,26,14,28,27,26,26,27,28,25,25,27,25,1908.txt
7,14,17,15,28,24,22,30,29,28,27,16,26,25,28,27,23,26,27,24,25,25,27,21,1911.txt
13,23,23,23,26,24,27,28,28,30,25,30,6,5,6,5,5,5,5,5,5,5,5,25,1913.txt
7,14,17,15,28,24,22,28,22,21,20,16,26,27,28,27,30,26,27,24,25,27,28,21,1914.txt
7,23,23,23,26,24,22,28,29,30,25,30,27,25,28,26,26,26,27,26,25,30,26,25,1916.txt
7,23,23,15,28,24,22,28,22,21,26,16,26,25,28,27,23,26,27,29,25,25,27,25,1919.txt
7,23,17,15,28,24,22,28,29,28,27,16,29,25,28,29,23,26,27,24,25,25,27,21,1921.txt
7,14,17,15,28,24,22,28,29,21,20,16,26,28,28,27,23,26,25,24,25,25,26,21,1923.txt
7,14,17,15,28,24,22,30,22,21,26,16,26,25,28,27,23,26,27,24,22,28,27,28,1926.txt
7,14,23,15,28,24,22,28,22,21,26,16,26,25,28,27,23,26,27,30,25,25,27,25,1928.txt
7,14,17,15,29,24,22,28,29,26,27,21,27,25,28,29,30,26,25,24,25,28,27,26,1930.txt
7,23,17,15,28,24,22,30,28,21,26,16,26,23,28,27,23,26,27,24,25,25,27,28,1932.txt
7,14,23,23,29,24,22,30,29,26,26,21,27,25,28,28,23,26,27,28,25,25,27,25,1934.txt
7,14,17,15,28,24,22,28,22,21,20,16,26,27,28,27,23,26,27,24,25,25,27,21,1937.txt
7,14,17,15,29,24,22,28,28,26,20,21,27,30,28,28,23,26,27,24,25,28,28,21,1938.txt
7,14,17,15,28,24,22,28,28,21,20,16,26,23,28,29,23,26,27,24,25,25,27,21,1941.txt
7,14,17,15,28,24,22,28,28,26,20,16,29,30,28,28,23,26,27,24,25,25,27,27,1942.txt
7,14,17,15,29,24,22,30,28,26,20,26,27,30,28,28,23,26,27,24,22,25,27,21,1944.txt
25,23,21,15,28,24,22,28,29,21,26,16,23,15,28,27,29,25,25,24,26,27,26,25,1947.txt
7,14,17,15,28,24,22,28,22,28,27,16,29,30,28,28,23,26,27,24,25,25,27,25,1948.txt
2,5,17,24,28,3,11,6,6,6,6,5,29,25,28,27,30,26,27,30,25,25,27,7,1951.txt
26,14,17,15,28,24,22,28,22,21,30,16,26,23,28,29,29,26,25,24,25,30,26,21,1952.txt
7,14,17,15,28,24,22,28,29,26,26,22,29,25,28,29,30,26,27,24,25,25,27,26,1954.txt
7,23,23,23,28,24,22,28,27,21,26,16,26,21,28,27,30,26,27,29,25,27,27,25,1956.txt
7,14,17,15,28,24,22,28,29,30,27,21,27,25,28,28,29,26,25,24,25,30,26,21,1959.txt
2,5,23,23,27,3,11,6,6,6,6,5,27,25,28,26,27,26,27,26,25,27,26,7,1961.txt
26,14,23,23,29,24,22,28,28,30,26,21,27,25,28,28,29,26,27,29,25,27,27,21,1964.txt
7,23,17,15,28,24,22,28,22,21,20,16,26,21,28,29,23,26,27,24,25,27,26,21,1965.txt
7,14,17,15,28,24,22,28,29,21,27,16,26,27,28,29,23,26,27,24,25,25,27,21,1970.txt
7,23,17,15,28,24,22,28,22,21,26,16,26,25,28,27,23,26,27,24,25,25,28,29,1973.txt
25,14,23,23,28,24,22,28,22,21,26,16,26,23,28,27,23,26,27,28,25,27,27,25,1974.txt
7,14,17,15,28,24,22,30,28,28,20,16,29,30,28,28,23,26,27,24,22,25,28,25,1976.txt
7,14,17,15,28,24,22,28,22,21,20,16,26,28,28,27,23,26,27,24,25,25,28,21,1979.txt
7,14,17,15,28,24,22,28,22,28,20,16,29,30,28,27,23,26,27,24,25,25,27,21,1981.txt
6,14,24,15,26,24,27,30,28,26,29,21,27,25,28,28,23,26,27,24,22,25,27,26,1983.txt
28,25,23,26,19,27,25,21,25,24,18,14,16,25,24,15,15,13,30,12,12,10,10,9,1984.txt
13,23,17,27,1,24,12,11,11,11,11,8,7,9,18,13,12,16,16,15,14,12,16,15,1986.txt
25,23,23,23,28,24,22,28,29,21,26,22,25,14,28,27,26,25,27,28,24,25,27,25,1989.txt
7,14,17,15,28,24,22,28,29,28,27,16,29,30,28,27,23,26,27,24,25,25,27,21,1991.txt
7,14,17,15,28,24,22,28,27,30,20,26,27,30,28,28,30,26,29,24,25,30,26,21,1992.txt
7,14,17,15,28,24,22,28,29,26,20,21,27,30,28,28,23,26,27,24,25,25,27,21,1995.txt
7,14,23,15,28,24,22,28,22,30,26,16,29,25,28,28,30,26,27,30,25,28,27,21,1997.txt
7,14,23,23,28,24,22,28,29,21,26,16,26,14,28,29,23,26,27,28,25,25,27,25,1999.txt
7,23,23,15,22,24,22,30,28,21,25,30,26,25,28,27,25,28,27,27,24,28,27,25,2001.txt
25,14,17,15,28,24,22,28,29,21,26,16,25,23,28,27,23,26,27,24,25,28,27,21,2005.txt
7,14,23,15,28,24,22,28,28,21,26,16,26,25,28,29,23,26,27,30,25,25,27,25,2007.txt
26,14,17,15,28,24,22,28,28,28,30,16,26,25,28,29,29,26,27,24,25,27,26,21,2008.txt
28,25,19,26,19,27,25,21,25,24,18,14,16,25,24,15,15,30,30,12,12,10,10,9,2012.txt
13,14,17,15,26,24,22,28,28,30,25,30,27,25,28,29,28,26,27,24,25,25,26,21,2015.txt
7,14,17,15,28,24,22,28,28,21,20,16,26,28,28,27,30,26,27,24,25,25,28,21,2017.txt
7,14,17,15,28,24,22,28,29,28,20,16,29,30,28,29,23,26,27,24,25,25,27,21,2020.txt
7,14,17,15,29,24,22,28,22,30,20,21,27,30,28,28,30,26,27,24,25,28,27,21,2022.txt
7,14,23,23,28,24,22,28,28,21,26,16,26,25,28,27,23,26,27,28,25,25,27,25,2024.txt
7,14,17,15,28,24,22,28,29,28,20,16,29,30,28,29,30,26,27,24,25,27,26,21,2026.txt
7,14,17,15,28,24,22,28,22,21,20,16,26,23,28,27,23,26,27,24,25,25,27,21,2029.txt
25,23,23,23,28,24,22,30,27,21,26,16,23,23,28,27,23,25,27,30,24,28,27,25,2031.txt
7,14,17,15,29,24,22,28,29,30,20,21,27,30,28,28,29,26,27,24,22,27,27,21,2032.txt
7,14,17,15,28,24,22,28,22,28,20,16,26,30,28,27,23,26,27,24,25,25,27,21,2034.txt
7,14,17,15,28,24,22,28,29,28,20,16,29,30,28,29,23,26,27,24,25,25,27,21,2037.txt
24,14,25,29,22,30,22,30,27,21,26,16,22,23,28,27,25,25,27,30,24,25,27,25,2038.txt
28,25,25,26,19,27,25,21,25,24,18,14,16,23,24,15,15,30,12,12,27,10,10,9,2040.txt
7,23,17,15,28,24,22,30,29,21,27,22,26,25,28,29,23,26,27,24,25,25,27,26,2043.txt
7,14,17,15,30,24,22,28,22,26,26,26,27,25,28,28,23,26,27,24,25,25,27,21,2045.txt
7,14,23,23,28,24,22,28,29,21,26,16,26,25,28,29,30,26,27,28,25,28,27,25,2049.txt
25,14,23,15,28,24,22,28,28,21,26,16,26,23,28,27,30,26,27,30,25,27,27,25,2052.txt
7,23,17,15,28,24,22,28,29,28,26,25,29,25,28,28,23,26,27,24,25,25,27,25,2053.txt
7,14,17,15,28,24,22,28,29,28,27,16,29,25,28,28,23,26,27,24,25,25,27,25,2055.txt
7,14,17,15,28,24,22,28,29,28,26,16,29,25,28,28,30,26,27,24,25,27,27,25,2057.txt
7,14,17,15,29,24,22,30,29,26,20,26,27,30,28,28,23,26,27,24,25,25,27,27,2060.txt
26,14,17,15,28,24,22,28,29,30,26,16,29,25,28,28,30,26,27,24,25,27,27,27,2062.txt
7,14,17,23,28,24,22,28,22,21,26,16,26,14,28,29,23,26,27,24,25,25,28,25,2066.txt
7,23,23,23,28,24,22,28,29,21,27,16,26,14,28,29,23,26,27,30,25,28,27,25,2067.txt
7,14,23,15,28,24,22,28,28,21,26,16,26,23,28,29,30,26,27,28,25,27,26,25,2069.txt
7,14,17,15,28,24,22,28,29,21,27,16,26,28,28,27,23,26,27,24,25,25,27,21,2072.txt
7,14,17,15,28,24,22,28,22,28,27,16,29,25,28,28,30,26,27,24,25,25,27,21,2074.txt
26,14,17,15,30,24,22,28,27,30,20,26,27,30,28,28,29,26,27,24,25,27,27,27,2078.txt
7,14,17,15,28,24,22,30,22,28,27,16,29,30,28,28,23,26,27,24,22,25,27,21,2080.txt
7,23,17,15,28,24,22,28,22,21,26,16,26,23,28,27,23,26,27,24,25,25,27,21,2083.txt
7,14,17,15,29,24,22,30,28,26,20,21,27,30,28,28,30,26,27,24,22,25,27,21,2085.txt
7,14,23,15,28,24,22,28,29,21,20,16,26,28,28,29,23,26,27,30,25,25,27,21,2087.txt
7,14,17,15,30,24,22,28,28,30,20,21,27,30,28,28,30,26,27,24,25,25,27,21,2090.txt
7,14,17,15,28,24,22,28,29,30,27,16,29,25,28,29,29,26,27,24,25,27,26,21,2092.txt
7,23,17,23,28,24,29,30,27,28,25,25,29,25,28,28,30,26,27,27,25,25,27,25,2093.txt
26,23,17,15,27,24,22,28,27,30,20,26,27,30,28,29,29,26,25,24,25,30,26,21,2096.txt
7,14,17,15,28,24,22,30,28,28,27,22,29,30,28,27,23,26,27,24,25,25,27,26,2098.txt
13,12,3,27,1,7,12,11,11,11,11,8,7,9,17,13,12,16,16,15,14,12,16,15,2099.txt
25,14,23,23,28,24,22,28,28,21,26,16,26,14,28,27,23,26,27,28,25,25,28,25,2101.txt
7,14,17,15,28,24,22,28,27,28,26,16,29,25,28,28,23,26,27,24,25,25,27,25,2103.txt
2,27,23,15,28,3,11,6,6,6,6,5,26,23,28,29,23,26,27,29,25,25,27,5,2105.txt
7,14,17,15,28,24,22,28,22,21,27,16,26,23,28,27,23,26,27,24,25,25,27,25,2107.txt
7,14,17,15,28,24,22,28,28,30,26,21,27,25,28,28,30,26,27,24,25,25,27,25,2110.txt
7,14,23,23,28,24,22,28,29,28,26,16,29,25,28,28,30,26,27,30,25,28,27,25,2113.txt
7,14,17,15,28,24,22,30,22,21,27,16,26,23,28,27,30,26,27,30,25,25,27,21,2114.txt
25,23,23,23,28,24,22,30,22,21,26,16,24,15,28,27,23,26,27,30,24,25,27,25,2117.txt
7,14,17,15,28,24,22,28,29,21,20,16,26,23,28,27,30,26,27,24,25,25,27,21,2119.txt
7,14,17,15,28,24,22,28,22,28,27,16,29,25,28,28,23,26,27,24,25,25,28,21,2121.txt
26,23,23,23,26,24,22,28,29,30,25,30,6,5,6,5,5,5,5,5,5,5,5,27,2122.txt
25,14,17,15,28,24,22,28,27,21,27,16,26,23,28,29,23,26,27,24,25,28,27,21,2125.txt
7,14,17,15,28,24,22,28,22,28,26,16,29,25,28,28,30,26,27,24,25,25,27,25,2126.txt
7,14,17,15,28,24,22,28,29,28,20,16,29,30,28,28,23,26,27,24,25,25,27,21,2129.txt
7,14,17,15,28,24,22,28,29,26,27,26,27,25,28,28,30,26,27,24,25,28,27,26,2130.txt
7,14,17,15,28,24,22,28,22,21,26,16,26,25,28,27,30,26,25,24,22,25,27,25,2133.txt
7,14,17,15,28,24,22,28,27,21,20,16,26,27,28,27,30,26,27,24,22,25,27,21,2135.txt
25,23,17,15,28,24,22,28,22,21,27,16,26,23,28,27,23,26,27,24,24,28,27,25,2137.txt
7,14,17,15,28,24,22,28,28,21,20,16,26,23,28,29,23,26,27,24,25,25,27,21,2139.txt
7,14,23,23,28,24,22,28,29,21,26,16,26,25,28,27,23,26,27,29,25,25,27,25,2141.txt
7,14,17,15,28,24,22,28,28,30,20,21,27,30,28,29,30,26,27,24,25,25,28,25,2142.txt
13,23,17,27,1,24,12,11,11,11,11,8,7,9,18,13,12,16,16,15,14,12,16,15,2145.txt
25,14,17,15,28,24,22,30,28,21,27,16,26,23,28,27,30,26,27,24,22,25,27,21,2147.txt
7,14,17,15,28,24,22,28,22,21,20,16,26,28,28,27,30,26,27,24,25,27,27,21,2149.txt
7,23,17,15,28,24,22,28,22,21,27,16,26,23,28,27,23,26,27,24,25,25,27,21,2151.txt
7,14,23,23,28,24,28,30,29,26,29,26,27,14,28,28,26,26,27,28,25,25,27,25,2153.txt
7,14,17,15,28,24,28,28,29,28,29,22,28,25,28,27,30,26,25,24,25,27,26,25,2154.txt
25,14,17,23,28,24,22,28,27,21,26,16,25,14,28,27,26,26,27,24,28,25,27,25,2156.txt
7,14,17,24,28,24,22,28,22,28,20,16,29,30,28,28,23,26,27,24,25,25,27,21,2160.txt
7,14,17,15,28,24,22,28,28,21,27,16,26,25,28,27,23,26,27,24,25,25,27,21,2161.txt
7,23,17,15,29,24,22,30,27,26,25,26,27,25,28,29,23,26,27,24,25,28,27,25,2165.txt
7,14,17,15,22,24,22,30,28,28,25,30,27,30,28,26,25,25,27,26,29,25,26,21,2166.txt
7,14,23,15,29,24,22,28,28,30,26,21,27,25,28,29,29,26,27,30,25,27,26,25,2168.txt
7,23,17,15,30,24,22,30,29,26,20,26,27,30,28,28,23,26,27,24,25,28,27,21,2171.txt
25,14,17,15,28,24,22,28,29,21,20,16,25,23,28,27,23,26,27,24,25,25,27,21,2173.txt
25,14,17,15,28,24,22,30,28,21,20,16,26,23,28,27,23,26,27,24,25,25,27,21,2176.txt
7,14,17,15,28,24,22,30,28,28,20,16,26,30,28,28,29,26,27,24,25,25,27,29,2177.txt
7,23,23,23,28,24,22,28,29,21,26,22,26,14,28,27,26,26,27,28,25,25,27,25,2179.txt
17,14,17,15,28,24,22,28,22,21,20,16,26,28,28,27,23,26,27,24,25,25,28,21,2181.txt
7,14,17,15,28,24,22,30,22,28,26,16,29,25,28,28,23,26,27,30,22,25,27,25,2184.txt
7,14,17,15,28,24,22,28,29,26,27,26,27,30,28,29,30,26,27,24,25,25,27,26,2186.txt
26,14,17,15,28,24,22,30,22,28,27,16,29,25,28,28,29,26,27,24,25,30,26,28,2188.txt
7,14,17,15,29,24,22,30,27,30,20,26,27,30,28,28,29,26,25,24,25,25,26,25,2189.txt
7,14,23,23,28,24,22,30,28,21,26,16,26,25,28,27,30,26,27,29,22,25,27,25,2191.txt
7,14,17,15,28,24,22,28,27,21,26,16,26,23,28,29,23,26,27,30,25,25,27,25,2194.txt
7,15,18,16,18,24,23,12,29,21,21,17,21,0,29,24,13,26,27,0,21,26,25,0,2196.txt
22,20,25,20,22,29,29,28,29,21,29,22,20,23,28,27,25,27,23,30,24,25,27,26,2200.txt
7,14,17,15,28,24,22,30,22,21,27,16,26,30,28,27,23,26,27,24,25,25,27,25,2201.txt
25,14,23,23,28,24,22,30,27,21,30,16,26,23,28,27,23,26,27,30,25,25,27,21,2204.txt
7,14,17,15,28,24,22,30,29,21,26,16,26,25,28,27,23,26,27,24,25,28,27,21,2206.txt
7,14,17,15,28,24,22,28,22,21,20,16,26,28,28,27,30,26,27,24,22,27,27,21,2209.txt
7,23,17,15,28,24,22,28,28,28,20,16,29,30,28,29,23,26,27,24,25,28,27,27,2211.txt
7,14,17,15,28,24,22,30,22,28,27,16,29,25,28,27,23,26,27,24,25,25,28,28,2213.txt
7,14,17,15,28,24,22,28,29,21,20,16,26,28,28,27,23,26,27,24,25,28,27,21,2215.txt
25,23,25,15,22,30,22,28,29,21,20,16,22,23,28,29,25,25,27,24,24,25,27,28,2217.txt
7,14,17,15,28,24,22,28,22,21,20,16,26,30,28,27,23,26,27,24,25,25,27,21,2219.txt
28,25,19,26,19,27,25,21,25,24,18,14,16,21,24,15,15,30,30,12,12,10,10,9,2220.txt
7,23,17,15,28,24,22,28,22,21,20,16,26,23,28,27,23,26,27,24,22,25,27,21,2223.txt
7,14,17,15,28,24,22,28,28,28,20,16,29,30,28,28,23,26,27,24,25,25,27,21,2225.txt
7,14,17,15,28,24,22,30,28,21,20,16,26,23,28,27,23,26,27,24,25,28,27,21,2227.txt
7,14,17,15,28,24,22,30,29,26,20,26,27,30,28,28,30,26,27,24,25,25,27,26,2229.txt
7,6,9,8,12,17,18,28,18,17,29,16,26,14,28,27,26,26,27,28,25,25,27,25,2231.txt
7,14,17,15,30,24,22,28,22,26,27,21,27,25,28,29,23,26,27,24,25,25,27,21,2232.txt
7,14,17,15,29,24,22,28,28,26,20,26,27,30,28,29,23,26,27,24,25,28,27,21,2234.txt
7,14,17,15,28,24,22,28,27,21,20,16,26,23,28,29,23,26,27,24,25,25,27,21,2237.txt
7,23,17,15,28,24,22,28,29,21,20,16,26,27,28,27,30,26,27,24,25,27,27,21,2240.txt
25,14,17,15,28,24,22,28,27,21,26,16,26,23,28,27,23,26,27,24,24,28,27,29,2241.txt
7,14,17,15,28,24,22,28,29,21,30,16,26,25,28,29,23,26,27,24,25,25,27,29,2244.txt
26,14,17,15,28,24,22,28,29,21,27,16,26,25,28,27,30,26,27,24,25,27,27,25,2245.txt
7,14,17,15,28,24,22,30,28,30,20,16,29,30,28,28,30,26,27,24,25,25,28,25,2247.txt
7,14,17,15,28,24,22,28,22,21,20,16,26,28,28,27,23,26,27,24,25,25,28,21,2249.txt
7,14,17,15,28,24,22,30,22,21,20,16,26,27,28,27,23,26,27,24,25,25,28,25,2252.txt
7,14,17,23,28,24,30,28,28,21,26,22,26,15,28,29,26,26,27,24,25,25,27,25,2255.txt
7,14,23,15,28,24,22,30,29,21,27,16,26,25,28,27,23,26,27,30,25,25,27,25,2257.txt
7,14,17,15,28,24,22,30,28,28,26,16,29,25,28,28,30,26,27,24,25,25,28,25,2258.txt
7,14,17,15,28,24,22,28,28,28,20,16,29,30,28,29,23,26,27,24,25,28,27,21,2260.txt
7,23,23,15,28,24,22,28,29,21,26,22,26,25,28,27,23,26,27,30,25,25,27,26,2263.txt
7,14,17,15,29,24,22,30,28,26,20,21,27,30,28,28,30,26,27,24,22,25,27,28,2265.txt
7,14,23,23,30,24,28,28,28,26,29,21,27,25,28,29,26,26,27,28,25,28,27,25,2266.txt
7,14,17,15,29,24,22,30,28,26,27,21,27,30,28,28,23,26,27,24,22,25,28,21,2268.txt
7,14,17,15,28,24,22,28,29,28,27,16,29,25,28,28,29,26,27,30,25,25,27,25,2271.txt
7,14,17,15,28,24,22,28,22,28,26,16,26,25,28,27,23,26,27,24,25,25,28,25,2273.txt
7,14,17,15,28,24,22,28,29,21,26,16,26,25,28,29,23,26,27,24,25,25,27,21,2275.txt
25,23,17,15,28,24,22,28,22,21,27,16,26,23,28,27,23,26,27,24,24,25,27,21,2276.txt
7,14,17,15,28,24,22,28,22,21,30,16,26,25,28,28,23,26,27,24,25,25,27,21,2278.txt
7,14,17,15,28,24,22,28,28,28,20,16,26,30,28,27,23,26,27,24,25,25,27,25,2280.txt
25,23,17,15,28,24,22,28,22,21,27,16,26,23,28,29,23,25,27,24,24,25,27,21,2283.txt
27,23,25,22,22,30,22,28,22,21,26,16,22,23,28,27,25,25,27,30,24,25,27,25,2284.txt
7,14,17,15,29,24,22,30,28,26,27,26,27,30,28,28,23,26,27,24,22,28,27,21,2286.txt
7,14,17,15,28,24,22,28,22,21,27,16,26,28,28,27,30,26,27,24,25,27,27,21,2288.txt
7,14,23,23,29,24,22,28,22,26,26,21,27,25,28,28,23,26,27,30,25,28,27,25,2291.txt
25,14,17,15,28,24,22,28,22,21,20,16,23,23,28,27,23,21,27,24,24,28,27,21,2292.txt
7,14,17,15,28,24,22,28,29,21,20,16,26,28,28,27,23,26,27,24,25,25,27,21,2294.txt
7,14,17,15,28,24,22,30,30,21,20,16,26,28,28,27,29,26,27,24,25,25,27,21,2297.txt
7,23,17,23,28,24,22,30,28,21,26,16,26,23,28,27,30,26,27,30,24,27,27,21,2300.txt
7,14,17,15,28,24,22,28,28,26,20,21,27,30,28,28,23,26,27,24,22,25,27,21,2302.txt
7,14,17,15,28,24,22,28,22,28,20,16,29,30,28,28,23,26,27,24,25,25,28,21,2304.txt
7,14,17,15,29,24,22,30,29,26,26,21,27,25,28,28,30,26,27,24,25,28,27,21,2306.txt
7,14,17,15,29,24,22,28,29,26,20,21,27,30,28,28,23,26,27,24,25,25,27,21,2308.txt
7,14,23,23,28,24,22,28,29,26,26,16,29,25,28,28,23,26,27,30,25,25,27,25,2310.txt
25,14,23,15,28,24,22,28,29,21,26,16,26,23,28,27,23,26,27,30,25,25,27,25,2312.txt
25,14,17,15,28,24,22,28,29,21,26,16,26,23,28,29,23,26,27,24,25,25,27,21,2313.txt
7,23,17,15,28,24,22,28,27,21,26,16,26,21,28,27,23,26,27,24,25,27,27,21,2315.txt
7,23,17,15,26,24,22,28,27,30,26,26,27,25,28,28,30,26,27,24,25,25,26,27,2318.txt
7,23,23,15,28,24,22,28,29,21,20,16,26,28,28,27,23,26,27,30,25,25,27,25,2319.txt
7,23,17,15,29,24,22,30,28,26,25,30,27,25,28,28,28,26,27,27,25,28,27,25,2322.txt
7,14,17,15,28,24,22,28,29,21,27,16,26,23,28,27,23,26,27,24,25,25,27,21,2324.txt
7,14,17,15,27,24,22,28,28,30,20,26,27,30,28,29,30,26,27,24,25,25,26,27,2325.txt
17,14,17,15,28,24,22,28,28,21,27,16,26,25,28,28,23,26,27,24,25,25,27,21,2328.txt
7,14,17,15,28,24,22,30,28,28,27,24,29,25,28,28,23,26,27,24,22,25,27,26,2330.txt
7,14,17,15,28,24,22,28,29,21,27,16,26,23,28,27,23,26,27,24,25,25,27,21,2332.txt
17,14,23,23,28,24,22,28,27,21,26,23,26,25,28,29,23,26,27,30,25,25,27,25,2333.txt
7,14,17,15,28,24,22,28,28,28,20,16,29,30,28,28,23,26,27,24,25,25,28,21,2337.txt
7,14,17,15,28,24,22,30,29,28,27,16,29,25,28,27,23,26,27,24,25,28,27,21,2339.txt
7,14,17,15,28,24,22,28,22,26,20,21,27,30,28,28,23,26,27,24,25,25,27,21,2341.txt
25,14,28,23,28,24,22,28,28,21,26,16,23,23,28,27,30,21,27,29,24,25,27,25,2343.txt
7,23,17,15,29,24,22,30,29,26,26,26,27,25,28,28,23,26,27,24,22,25,27,26,2344.txt
28,25,25,26,19,27,25,21,25,24,18,14,16,23,24,15,15,30,30,12,27,10,10,9,2346.txt
7,14,17,15,30,24,22,30,29,26,20,26,27,30,28,28,23,26,27,24,25,25,27,27,2348.txt
26,14,17,15,30,24,22,28,22,26,20,21,27,30,28,28,30,26,27,24,25,25,27,21,2352.txt
7,23,25,15,22,24,29,28,28,21,25,30,26,21,28,29,25,25,27,27,24,28,27,25,2354.txt
26,14,17,15,28,24,22,28,29,28,27,16,26,25,28,28,30,26,25,24,25,27,26,21,2355.txt
7,14,17,15,28,24,22,30,29,28,26,22,29,25,28,28,23,26,27,24,25,25,27,26,2358.txt
25,14,17,15,28,24,22,28,29,21,26,22,25,23,28,27,23,26,27,24,25,28,27,26,2360.txt
7,14,23,23,28,24,22,28,29,21,26,16,26,23,28,27,29,26,25,28,25,30,26,25,2361.txt
27,14,25,22,25,30,22,28,29,21,26,16,22,23,28,27,30,25,27,30,24,25,27,25,2364.txt
25,23,17,15,28,24,22,28,28,21,20,16,26,23,28,27,30,26,27,24,24,25,27,21,2365.txt
25,14,17,15,28,24,22,28,29,21,27,16,26,23,28,27,23,26,27,24,25,25,27,25,2370.txt
2,27,6,5,7,3,11,6,6,6,6,5,21,0,0,11,13,15,15,0,15,0,0,5,2371.txt
7,14,17,15,28,24,22,30,22,21,26,16,26,25,28,27,23,26,27,24,25,25,27,25,2375.txt
7,23,17,15,22,24,22,28,27,28,25,30,27,25,28,29,25,25,27,26,24,25,27,21,2376.txt
7,14,23,23,28,24,22,28,27,28,26,16,29,25,28,28,23,26,27,30,25,25,27,25,2378.txt
7,14,17,15,28,24,22,30,28,28,27,16,29,30,28,27,23,26,27,24,25,25,27,21,2380.txt
25,14,17,15,28,24,22,30,29,21,30,16,26,23,28,27,23,21,27,24,24,28,27,21,2382.txt
7,14,17,15,28,24,22,30,28,28,20,16,29,30,28,28,23,26,27,24,25,25,27,27,2384.txt
7,14,17,15,29,24,22,28,28,30,27,21,27,30,28,28,30,26,27,24,25,29,27,21,2385.txt
7,14,17,15,28,24,22,30,28,21,26,16,26,25,28,27,30,26,27,24,22,25,27,25,2387.txt
7,14,17,15,28,24,22,30,28,26,20,26,27,30,28,28,23,26,27,24,22,28,27,21,2390.txt
7,14,17,15,28,24,22,28,22,21,20,16,26,23,28,27,23,26,27,24,25,25,27,21,2392.txt
7,14,17,15,28,24,22,30,22,26,20,16,29,30,28,28,23,26,27,24,25,25,27,21,2394.txt
7,14,17,15,28,24,22,28,22,28,27,16,29,30,28,28,23,26,27,24,25,25,28,21,2395.txt
7,14,17,15,29,24,22,30,22,26,20,26,27,30,28,28,23,26,27,24,25,25,27,25,2400.txt
7,14,17,15,29,24,22,30,28,30,20,21,27,30,28,28,30,26,25,24,25,29,27,21,2402.txt
7,23,23,15,28,24,22,28,22,21,26,16,26,23,28,27,23,26,27,30,25,25,27,25,2404.txt
26,23,17,15,29,24,22,30,27,29,25,30,27,25,28,26,28,26,25,26,25,27,26,21,2405.txt
7,14,23,23,28,24,22,30,28,28,26,16,29,25,28,27,23,26,27,29,22,25,27,25,2408.txt
7,14,17,15,29,24,22,28,22,26,20,21,27,30,28,29,23,26,27,24,25,28,28,21,2410.txt
7,14,17,15,28,24,22,28,22,28,20,16,29,30,28,27,30,26,27,24,25,25,27,21,2411.txt
25,14,17,15,28,24,22,28,28,21,26,22,26,23,28,29,23,26,27,24,25,25,27,26,2413.txt
7,14,17,15,28,24,22,28,22,28,27,16,29,25,28,28,30,26,27,24,25,25,27,21,2416.txt
7,14,17,15,28,24,22,28,22,28,27,16,26,30,28,27,23,26,27,24,25,25,27,25,2417.txt
7,14,17,15,28,24,22,28,29,21,27,16,26,28,28,27,30,26,27,24,25,27,27,28,2419.txt
7,23,17,15,28,24,22,28,29,21,20,22,26,30,28,27,23,26,27,24,25,25,27,26,2422.txt
25,14,17,15,28,24,22,28,27,21,20,16,23,23,28,27,23,26,27,24,24,25,27,21,2425.txt
7,14,17,15,28,24,22,28,22,21,27,16,26,25,28,27,23,26,27,24,25,25,27,29,2426.txt
25,15,6,5,7,24,15,12,28,21,0,0,21,0,0,11,13,26,27,0,15,0,0,0,2428.txt
7,14,17,15,30,24,22,28,28,28,25,30,27,25,28,29,28,26,27,26,25,29,27,21,2430.txt
7,14,17,15,28,24,22,28,29,21,20,16,26,30,28,27,23,26,27,24,25,25,27,21,2432.txt
7,14,17,15,28,24,22,28,29,21,26,22,26,23,28,27,23,26,27,24,25,25,27,25,2435.txt
25,14,30,23,28,24,22,28,22,21,26,16,23,23,28,27,26,26,27,29,24,25,27,25,2437.txt
7,15,6,5,7,25,15,12,23,22,0,0,21,0,0,11,13,22,15,0,15,0,0,0,2440.txt
7,14,17,15,28,24,22,30,28,28,27,16,29,30,28,28,23,26,27,24,22,25,27,29,2442.txt
25,23,25,23,28,24,22,28,29,21,26,16,25,23,28,29,25,25,27,30,24,25,27,25,2444.txt
7,23,17,15,22,24,22,30,27,28,25,30,27,25,28,26,25,25,27,26,24,25,27,21,2445.txt
7,14,17,15,30,24,22,28,29,26,26,21,27,25,28,28,23,26,27,24,25,28,27,26,2447.txt
7,14,17,15,29,24,22,28,29,26,20,21,27,30,28,28,23,26,27,24,25,25,27,21,2449.txt
7,14,17,15,28,24,22,28,29,28,20,16,29,30,28,28,23,26,27,24,25,25,27,21,2451.txt
7,14,17,15,28,24,22,30,28,26,20,21,27,30,28,28,23,26,27,24,25,28,27,21,2453.txt
28,18,25,18,21,27,25,21,25,24,18,14,16,23,24,15,15,13,30,12,27,10,10,9,2455.txt
7,14,17,15,28,24,22,30,28,21,20,16,26,24,28,27,30,26,27,24,22,25,28,21,2457.txt
25,14,17,15,28,25,22,28,23,22,20,16,25,23,28,27,23,22,15,24,22,25,27,21,2459.txt
7,14,23,15,29,24,22,28,29,30,26,26,27,25,28,28,30,26,27,30,25,25,27,21,2462.txt
7,14,17,15,28,24,22,28,22,21,27,16,26,25,28,27,23,26,27,24,25,25,27,25,2464.txt
7,14,23,15,28,24,22,28,22,26,20,16,29,30,28,28,23,26,27,30,22,25,27,25,2466.txt
25,6,9,8,12,17,18,28,18,17,26,16,26,14,28,27,26,26,27,28,25,25,27,25,2468.txt
28,18,17,18,21,27,25,21,25,24,18,14,16,25,24,15,15,13,30,12,12,10,10,9,2470.txt
7,14,17,15,28,24,22,30,22,21,20,16,26,28,28,27,30,26,27,24,25,25,27,21,2471.txt
7,14,17,15,29,24,22,28,28,26,20,21,27,30,28,29,23,26,27,24,25,25,27,21,2473.txt
7,14,17,15,28,24,22,30,29,21,20,16,26,23,28,27,23,26,27,24,25,25,27,21,2475.txt
7,6,9,8,12,17,18,30,18,17,29,26,27,14,28,28,26,26,27,28,25,28,27,25,2477.txt
7,14,17,15,28,24,22,28,22,28,20,16,29,30,28,29,23,26,27,24,25,25,27,21,2480.txt
7,14,17,15,30,24,22,28,22,30,20,21,27,30,28,29,30,26,27,24,25,25,28,21,2482.txt
27,23,25,22,22,30,22,30,22,21,26,16,20,23,28,27,25,25,27,28,24,25,27,25,2483.txt
25,14,17,15,28,24,22,30,28,21,26,16,26,23,28,27,23,26,27,24,22,28,27,28,2485.txt
28,25,25,26,19,27,25,21,25,24,18,14,16,23,24,15,15,13,30,12,27,10,10,9,2488.txt
7,23,23,23,28,24,22,28,22,21,25,16,26,25,28,27,23,26,27,28,25,25,27,25,2491.txt
7,14,23,23,28,24,22,28,29,21,26,16,26,23,28,27,26,26,27,30,25,28,27,25,2496.txt
7,14,17,15,29,24,22,28,28,26,27,21,27,30,28,29,23,26,27,24,25,28,27,26,2506.txt
13,25,17,27,1,28,12,11,11,11,11,8,7,9,18,13,12,16,16,15,14,12,16,15,2511.txt
7,14,17,15,29,24,22,28,22,30,20,21,27,30,28,28,29,26,27,24,25,30,26,21,2517.txt
26,14,17,15,28,24,22,28,22,21,20,16,26,23,28,27,30,26,25,24,22,30,26,25,2518.txt
7,14,23,15,28,24,22,28,29,28,20,16,29,30,28,29,23,26,27,30,25,25,28,21,2521.txt
7,14,17,15,29,24,22,28,22,30,27,21,27,30,28,28,30,26,27,24,25,25,26,21,2522.txt
25,14,17,15,28,24,22,28,22,21,20,16,23,23,28,29,23,26,27,24,24,25,28,25,2526.txt
25,23,23,23,28,24,22,28,22,21,26,16,26,23,28,27,29,21,27,29,24,27,27,25,2528.txt
7,23,17,15,28,24,22,28,27,21,26,16,26,23,28,27,23,26,27,24,25,25,27,21,2531.txt
7,23,17,23,27,24,30,28,27,27,25,30,27,25,28,26,26,25,25,26,24,28,26,25,2533.txt
7,14,17,15,28,24,22,30,28,26,27,16,29,30,28,28,23,26,27,24,22,25,27,21,2536.txt
7,14,23,15,28,24,22,28,29,21,27,16,26,23,28,27,23,26,27,30,25,25,27,25,2538.txt
7,14,23,23,28,24,22,28,29,21,26,16,26,25,28,27,23,26,27,29,25,25,27,25,2541.txt
7,14,17,15,28,24,22,30,28,26,20,16,29,30,28,28,23,26,27,24,25,25,28,21,2543.txt
7,14,17,15,28,24,22,30,28,30,20,21,27,30,28,28,29,26,27,24,25,27,26,21,2544.txt
7,14,17,15,29,24,22,16,28,30,25,30,27,30,28,29,28,26,25,26,25,16,26,26,2548.txt
7,14,17,15,28,24,22,28,22,21,27,16,26,23,28,27,29,26,25,24,25,30,26,21,2550.txt
7,14,17,15,29,24,22,28,29,26,27,21,27,25,28,29,23,26,27,24,25,28,27,21,2552.txt
26,14,17,15,29,24,22,30,29,30,20,21,27,30,28,28,29,26,27,24,25,27,26,21,2553.txt
28,25,17,26,19,27,25,21,25,24,18,14,16,25,24,15,15,30,30,12,12,10,10,9,2556.txt
7,14,23,15,29,24,22,28,22,26,27,21,27,25,28,28,23,26,27,30,25,28,27,29,2558.txt
7,14,17,15,29,24,22,30,28,26,20,21,27,30,28,28,30,26,27,24,25,28,26,25,2560.txt
7,14,17,15,30,24,22,28,22,30,20,21,27,30,28,28,30,26,27,24,22,28,27,21,2562.txt
7,14,23,23,28,24,22,28,29,26,26,16,29,25,28,29,23,26,27,30,25,25,27,25,2564.txt
7,23,17,15,28,24,22,28,29,28,20,16,29,30,28,27,30,26,27,24,25,25,26,21,2566.txt
7,14,17,15,28,24,22,28,29,21,26,16,26,23,28,29,23,26,27,24,25,28,27,21,2569.txt
28,24,25,17,19,27,25,21,25,24,18,14,16,23,24,15,15,29,12,12,27,10,10,9,2570.txt
25,14,17,15,28,24,22,28,28,21,20,16,26,23,28,29,23,26,27,24,25,25,28,21,2572.txt
7,14,17,15,30,24,22,30,28,30,20,21,27,30,28,28,30,26,27,24,22,29,26,21,2574.txt
7,14,17,15,29,24,22,28,27,26,27,21,27,25,28,28,23,26,27,24,25,25,27,25,2576.txt
26,23,17,15,29,24,22,28,28,29,25,26,27,30,28,29,28,26,27,27,25,29,26,21,2578.txt
26,14,17,15,28,24,22,28,27,21,26,16,26,25,28,27,29,26,27,24,22,25,26,25,2580.txt
7,14,23,23,29,24,22,30,27,26,26,21,27,25,28,28,23,26,27,29,25,28,27,26,2583.txt
6,23,24,15,28,24,27,28,29,21,29,22,26,23,28,27,23,26,27,24,24,27,27,26,2584.txt
7,14,17,15,28,24,22,28,28,28,27,16,29,25,28,29,23,26,27,24,25,25,27,21,2587.txt
26,23,17,15,29,24,22,30,28,29,25,30,27,25,28,30,28,26,27,26,25,29,26,27,2590.txt
7,14,17,15,29,24,22,28,28,30,27,21,27,30,28,29,29,26,25,24,25,29,27,21,2592.txt
7,23,17,15,29,24,22,28,29,26,20,26,27,30,28,28,30,26,27,24,25,25,27,26,2595.txt
7,14,17,15,28,24,22,28,27,21,27,16,26,28,28,27,29,26,25,24,25,30,26,21,2596.txt
7,14,17,15,28,24,22,28,29,28,20,16,29,30,28,29,23,26,27,24,25,25,27,21,2599.txt
7,23,17,15,28,24,30,28,29,21,29,22,26,25,28,27,23,26,27,24,25,25,27,25,2601.txt
26,23,17,15,29,24,22,28,30,30,25,30,27,25,28,29,28,26,27,27,25,29,26,28,2604.txt
25,23,17,15,28,24,22,28,27,21,26,16,25,23,28,27,23,26,27,24,24,28,27,25,2605.txt
26,23,23,23,28,24,22,30,27,28,25,30,29,25,28,29,28,26,25,26,24,30,26,25,2608.txt
7,14,17,15,28,24,22,28,22,21,26,16,26,25,28,27,23,26,27,30,25,27,28,21,2610.txt
25,14,17,15,28,24,22,28,27,21,26,16,26,23,28,29,23,26,27,24,25,25,27,21,2611.txt
7,14,17,15,28,24,22,28,29,28,20,22,29,30,28,28,30,26,27,24,25,27,26,26,2614.txt
19,25,25,26,19,28,26,22,24,25,19,13,11,23,25,14,14,12,13,11,11,9,9,8,2616.txt
7,14,23,15,28,24,22,28,28,21,27,16,26,25,28,27,23,26,27,30,25,25,27,25,2617.txt
25,14,17,15,28,24,22,28,28,21,27,16,25,23,28,27,23,26,27,24,25,25,27,21,2621.txt
25,23,21,23,22,24,22,30,29,21,26,16,23,14,28,27,25,25,27,28,24,27,27,25,2625.txt
7,14,17,15,28,24,22,28,28,28,26,16,29,25,28,28,29,26,25,24,25,27,26,28,2626.txt
7,14,17,15,28,24,22,28,29,30,27,16,29,25,28,28,30,26,27,24,25,25,27,26,2628.txt
7,23,17,15,28,24,22,28,22,21,20,16,26,23,28,27,23,26,27,24,25,25,27,21,2630.txt
7,14,17,23,28,24,22,28,29,28,26,16,29,14,28,29,26,26,27,24,25,25,27,25,2632.txt
7,23,17,23,28,24,22,28,27,21,26,16,26,23,28,29,30,26,27,30,25,25,27,25,2634.txt
7,14,23,15,28,24,22,28,22,26,26,16,29,25,28,29,30,26,27,29,25,25,26,25,2637.txt
28,25,17,26,19,27,25,21,25,24,18,14,16,30,24,15,15,13,30,12,12,10,10,9,2639.txt
26,23,23,15,29,24,22,28,28,30,25,30,27,25,28,29,28,26,27,26,25,30,26,25,2641.txt
26,14,17,15,28,24,22,28,28,21,20,16,26,30,28,29,29,26,25,24,25,30,26,25,2643.txt
26,14,17,15,28,24,22,30,27,30,26,21,27,25,28,28,29,26,27,24,25,25,27,21,2644.txt
7,14,17,15,28,24,22,28,29,21,27,16,26,21,28,27,23,26,27,24,25,25,27,21,2646.txt
28,25,23,26,19,27,25,21,25,24,18,14,16,25,24,15,15,13,30,12,12,10,10,9,2649.txt
7,14,23,15,29,24,22,28,28,30,25,30,27,25,28,29,28,26,25,27,25,29,26,21,2651.txt
7,14,17,15,30,24,22,28,29,26,27,21,27,25,28,28,23,26,27,24,25,28,27,26,2652.txt
20,17,17,26,19,27,25,16,25,24,18,14,16,12,24,15,15,30,30,12,12,14,10,9,2654.txt
7,14,17,15,29,24,22,28,29,26,26,26,27,25,28,28,23,26,27,24,25,28,27,26,2656.txt
2,5,23,23,28,3,11,6,6,6,6,5,27,25,28,28,30,26,27,30,25,27,26,7,2659.txt
7,14,17,23,28,24,22,28,29,21,26,16,26,15,28,27,23,26,27,24,25,25,27,25,2661.txt
7,14,17,15,28,24,22,30,22,28,27,16,29,25,28,28,23,26,27,24,25,25,27,21,2663.txt
7,14,17,15,29,24,22,28,29,26,20,26,27,30,28,28,23,26,27,24,25,25,27,21,2664.txt
7,14,17,15,30,24,22,28,22,26,20,21,27,30,28,28,23,26,27,24,25,25,28,21,2667.txt
2,16,25,22,22,3,7,10,10,9,6,7,20,23,28,27,25,25,27,28,29,30,26,7,2669.txt
7,23,17,15,29,24,22,28,28,26,27,26,27,30,28,29,23,26,27,24,25,25,26,21,2671.txt
7,14,17,15,30,24,22,28,22,30,26,21,27,25,28,28,30,26,27,24,25,25,27,21,2672.txt
7,14,17,15,28,24,22,28,28,28,25,30,27,25,28,29,28,26,27,26,25,28,27,21,2674.txt
7,14,17,15,28,24,22,28,29,26,20,16,29,30,28,28,23,26,27,24,25,28,27,21,2676.txt
7,23,17,15,28,24,22,28,22,21,27,16,26,23,28,29,23,26,27,24,24,25,27,25,2678.txt
25,14,17,15,28,24,22,28,29,21,27,16,26,23,28,27,23,26,27,24,25,25,27,21,2680.txt
26,14,17,15,28,24,22,28,28,28,20,16,29,30,28,28,30,26,27,24,25,29,26,21,2682.txt
17,14,17,15,30,24,22,28,29,26,20,21,27,30,28,29,21,23,27,24,25,25,27,26,2684.txt
7,23,23,15,28,24,22,28,29,21,26,16,26,25,28,27,23,26,27,30,25,25,27,25,2686.txt
7,14,17,15,30,24,22,28,28,26,20,21,27,30,28,28,23,26,27,24,25,25,27,21,2695.txt
25,14,17,15,28,24,22,28,29,21,20,16,26,23,28,29,23,26,27,24,25,25,27,25,2703.txt
7,14,17,15,28,24,22,28,22,21,20,16,26,23,28,29,23,26,27,24,25,25,27,21,2714.txt
7,14,23,15,28,24,22,30,28,28,26,16,29,25,28,28,23,26,27,30,25,25,27,28,2720.txt
7,23,17,15,28,24,22,28,27,21,26,16,26,25,28,27,23,26,27,24,25,25,27,25,2721.txt
25,14,17,15,28,24,22,30,28,21,20,16,26,23,28,27,30,26,27,24,24,25,27,21,2723.txt
7,23,23,15,28,24,22,28,29,28,27,16,29,25,28,27,30,26,27,28,25,27,27,25,2726.txt
7,23,17,15,28,24,22,30,27,28,26,16,29,25,28,27,30,26,27,24,22,27,26,21,2728.txt
7,14,17,15,28,24,22,30,30,21,27,16,26,23,28,27,23,26,27,24,25,25,28,25,2731.txt
7,23,17,15,29,24,22,28,29,26,27,26,27,14,28,28,30,26,27,24,25,25,27,25,2733.txt
25,23,25,23,22,24,22,28,27,21,30,22,22,23,28,27,25,25,27,30,24,25,27,26,2736.txt
7,14,17,15,28,24,22,28,29,21,26,16,26,23,28,29,23,26,27,30,25,25,27,25,2743.txt
7,23,17,15,28,24,22,28,27,21,26,16,26,23,28,27,23,26,27,24,25,25,27,21,2751.txt
7,14,17,15,28,24,22,30,28,26,26,16,29,25,28,28,30,26,27,24,22,28,27,28,2756.txt
7,14,17,15,28,24,22,28,27,21,26,16,26,25,28,27,23,26,27,24,25,25,27,25,2757.txt
25,14,23,15,28,24,22,30,22,21,26,16,26,23,28,27,23,26,27,30,25,28,28,29,2761.txt
7,23,17,15,28,24,22,28,28,28,25,30,29,25,28,26,28,26,27,26,24,27,27,25,2764.txt
7,14,23,15,28,24,22,30,28,28,27,16,29,25,28,27,23,26,27,28,25,25,27,25,2767.txt
7,23,17,15,28,24,22,28,29,21,27,16,26,30,28,27,23,26,27,24,22,25,27,25,2770.txt
7,14,17,15,28,24,22,28,22,21,20,16,26,23,28,27,23,26,27,24,25,25,28,21,2772.txt
7,14,17,15,29,24,22,28,27,30,26,21,27,25,28,29,30,26,27,24,25,27,26,25,2773.txt
7,14,17,15,30,24,22,30,28,30,20,21,27,30,28,28,30,26,27,24,25,25,27,21,2775.txt
7,14,17,15,28,24,22,28,28,21,27,16,26,30,28,29,23,26,27,24,25,25,28,21,2777.txt
25,14,23,23,28,24,30,28,27,21,26,16,23,15,28,27,26,26,27,30,26,28,27,25,2780.txt
7,14,17,15,28,24,22,28,22,21,27,16,26,23,28,27,23,26,27,24,25,25,27,21,2782.txt
7,23,17,15,28,24,22,28,27,21,20,16,26,24,28,29,30,26,27,24,25,30,26,21,2783.txt
7,14,17,15,28,24,22,28,29,28,27,22,29,25,28,28,23,26,27,24,25,25,27,26,2788.txt
7,14,17,15,29,24,22,28,28,26,26,21,27,25,28,28,23,26,27,24,25,28,27,26,2789.txt
7,23,17,15,28,24,22,28,29,21,27,16,26,30,28,27,23,26,27,24,25,25,27,21,2792.txt
7,14,17,15,30,24,22,28,28,26,27,21,27,25,28,28,23,26,27,24,25,28,27,21,2798.txt
7,14,17,15,28,24,22,28,28,21,27,16,26,28,28,27,23,26,27,24,25,25,27,21,2800.txt
7,14,17,15,28,24,22,30,28,26,20,26,27,30,28,28,23,26,27,24,22,28,27,21,2802.txt
7,14,17,15,28,24,22,28,22,21,20,16,26,28,28,27,30,26,25,24,25,27,26,21,2804.txt
7,14,17,15,28,24,22,28,29,21,27,22,26,25,28,27,23,26,27,24,25,25,27,26,2806.txt
7,14,23,23,28,24,22,30,22,28,26,16,29,25,28,27,23,26,27,29,25,25,27,25,2808.txt
7,14,17,15,28,24,22,28,22,21,20,16,26,30,28,27,23,26,27,24,25,25,27,21,2812.txt
28,25,17,26,19,27,25,21,25,24,18,14,16,25,24,15,15,13,30,12,12,10,10,9,2814.txt
2,27,23,23,28,3,11,6,6,6,6,5,26,23,28,27,23,26,27,30,25,25,27,7,2817.txt
7,14,23,23,28,24,29,28,29,28,29,23,29,25,28,28,30,26,27,30,25,25,26,25,2819.txt
7,14,17,15,28,24,22,28,29,28,27,16,29,25,28,28,30,26,27,24,25,27,26,25,2821.txt
7,23,17,15,29,24,22,30,29,26,25,26,27,25,28,28,23,26,27,24,25,28,27,21,2823.txt
7,14,17,15,28,24,22,28,29,28,27,16,29,25,28,27,23,26,27,24,25,25,27,21,2824.txt
13,25,3,27,1,27,12,11,11,11,11,8,7,9,18,13,12,16,16,15,14,12,16,15,2827.txt
25,14,17,15,28,24,22,28,28,21,27,16,26,23,28,27,23,26,27,24,25,25,27,21,2828.txt
7,14,17,15,28,24,22,28,28,21,20,16,26,27,28,27,23,26,27,24,25,25,27,25,2830.txt
7,23,23,23,22,24,22,30,28,27,25,30,27,25,28,26,25,28,27,26,24,29,27,25,2833.txt
7,23,17,15,30,24,22,30,28,27,25,30,27,25,28,30,28,26,27,30,22,25,27,29,2838.txt
7,14,17,15,28,24,22,30,22,28,20,16,29,30,28,28,23,26,27,24,25,25,27,21,2840.txt
28,24,25,26,19,27,25,21,25,24,18,14,16,23,24,15,15,13,12,12,27,10,10,9,2842.txt
7,14,23,15,28,24,22,28,22,21,27,16,26,23,28,27,23,26,27,30,25,25,27,25,2844.txt
7,14,17,15,28,24,22,28,29,21,20,16,26,23,28,27,23,26,27,24,25,25,27,21,2845.txt
7,14,17,15,28,24,22,30,28,28,20,16,29,30,28,28,23,26,27,24,25,25,27,21,2851.txt
7,14,23,23,29,24,22,30,30,26,26,21,27,25,28,28,23,26,27,30,25,28,27,27,2854.txt
7,14,17,15,28,24,22,28,22,21,27,16,26,23,28,27,23,26,27,24,25,25,27,28,2856.txt
7,14,17,15,28,24,22,30,28,21,27,16,26,14,28,27,30,26,27,24,22,27,28,25,2858.txt
7,14,17,15,28,24,22,30,22,28,20,16,29,30,28,27,23,26,27,24,25,25,28,21,2860.txt
7,14,17,15,29,24,22,28,22,26,26,21,27,25,28,28,23,26,27,24,25,25,28,25,2862.txt
7,14,17,15,28,24,22,28,29,21,20,23,26,23,28,27,23,26,27,24,25,25,27,26,2865.txt
7,14,23,23,28,24,22,28,28,21,26,16,26,25,28,27,23,26,27,29,25,25,27,25,2867.txt
7,23,23,15,28,24,22,28,29,21,26,22,26,21,28,27,23,26,27,30,28,25,27,25,2870.txt
7,14,17,15,28,24,22,28,29,26,27,16,29,30,28,28,23,26,27,24,25,25,27,21,2872.txt
25,14,17,15,28,24,22,28,22,21,20,16,26,23,28,27,23,26,27,24,25,25,27,21,2875.txt
7,14,23,15,28,24,22,28,29,28,26,16,26,25,28,28,23,26,27,30,25,25,27,25,2877.txt
25,14,17,15,28,24,22,28,29,21,26,22,26,23,28,27,23,26,27,24,25,25,27,25,2879.txt
7,23,23,23,28,24,22,28,29,21,26,16,26,25,28,27,23,26,27,29,25,25,27,25,2881.txt
28,25,25,25,19,27,25,21,25,24,18,14,16,23,24,15,15,13,30,12,27,10,10,9,2883.txt
25,14,17,15,28,24,22,28,29,21,27,16,26,23,28,27,23,26,27,24,28,28,27,25,2884.txt
7,14,17,15,29,24,22,30,28,29,25,26,27,25,28,28,23,26,27,27,25,25,27,25,2886.txt
25,14,23,15,28,24,22,28,29,21,27,22,26,23,28,29,23,26,27,30,25,25,27,25,2888.txt
17,14,17,15,28,24,22,28,29,28,20,16,29,30,28,28,30,26,27,24,25,25,27,21,2892.txt
7,14,23,23,28,24,22,28,29,28,26,16,29,25,28,27,23,26,27,28,25,25,27,25,2897.txt
7,14,23,23,28,24,30,28,29,28,26,16,29,25,28,27,26,26,27,30,25,28,27,25,2899.txt
7,14,17,15,28,24,22,28,29,26,26,21,27,25,28,29,23,26,27,30,25,28,27,21,2902.txt
7,14,17,15,30,24,22,28,28,28,27,26,27,30,28,29,23,26,27,24,25,25,27,21,2904.txt
24,14,25,29,22,29,22,28,22,21,27,16,20,23,28,23,25,25,27,24,24,25,24,21,2911.txt
7,14,17,15,28,24,22,28,29,28,20,16,29,30,28,29,23,26,27,24,25,25,27,21,2913.txt
25,14,17,23,28,24,22,28,28,21,26,16,26,23,28,27,23,26,27,30,25,25,27,25,2923.txt
7,14,17,15,28,24,22,28,28,30,27,16,29,25,28,28,30,26,27,24,25,25,27,21,2930.txt
27,23,25,22,22,30,22,28,28,21,26,16,20,23,28,27,25,25,27,24,24,25,27,21,2933.txt
7,14,17,15,28,24,22,30,29,21,27,16,26,23,28,27,23,26,27,24,25,25,27,27,2934.txt
25,14,23,15,28,24,22,28,29,21,26,16,26,23,28,27,23,26,27,30,25,25,27,25,2937.txt
7,14,17,15,28,24,22,28,28,28,25,30,27,30,28,29,25,25,27,26,29,25,27,21,2946.txt
7,14,17,15,28,24,22,28,22,21,27,16,26,23,28,27,23,26,27,24,25,25,27,21,2947.txt
7,14,23,15,28,24,22,28,28,21,27,16,26,25,28,29,30,26,27,30,25,28,27,25,2950.txt
7,14,17,15,28,24,22,28,29,28,20,16,29,30,28,28,30,26,27,24,25,25,27,21,2953.txt
7,14,23,15,28,24,22,28,29,21,26,16,26,25,28,27,30,26,27,30,25,25,27,28,2955.txt
7,14,23,15,30,24,22,28,28,26,27,21,27,25,28,28,30,26,27,30,25,25,27,25,2957.txt
7,14,17,15,30,24,22,28,29,30,20,21,27,30,28,28,30,26,27,24,25,28,27,21,2959.txt
7,14,17,15,28,24,22,28,22,26,20,16,29,30,28,28,23,26,27,24,25,25,27,21,2961.txt
7,15,6,5,7,24,15,12,29,21,0,0,21,0,0,11,13,26,27,0,15,0,0,0,2963.txt
7,14,17,15,22,24,22,30,28,28,25,30,27,30,28,29,25,25,25,26,24,29,28,21,2965.txt
7,14,17,15,28,24,22,28,27,21,26,16,26,25,28,27,23,26,27,24,25,25,27,21,2967.txt
7,14,23,23,29,24,22,28,28,26,26,21,27,25,28,28,23,26,27,28,25,28,27,25,2968.txt
7,23,23,23,28,24,30,30,29,21,29,16,26,25,28,27,26,26,27,28,25,25,28,25,2971.txt
7,14,17,15,28,24,22,30,29,21,27,16,26,24,28,27,30,26,27,24,22,25,27,27,2973.txt
7,14,17,15,28,24,22,28,29,21,27,16,26,23,28,27,23,26,27,24,25,25,27,28,2975.txt
7,23,23,23,28,24,22,28,27,21,26,16,26,21,28,27,29,26,27,29,25,27,27,25,2976.txt
7,14,23,15,28,24,22,28,27,21,26,16,26,25,28,27,23,26,27,30,25,25,27,25,2979.txt
7,14,23,15,28,24,22,28,29,26,27,21,27,30,28,28,23,26,27,30,25,25,27,25,2980.txt
7,14,23,15,28,24,22,28,29,26,26,21,27,25,28,28,30,26,27,30,25,25,27,21,2982.txt
7,14,23,15,28,24,22,28,22,21,26,16,26,23,28,27,23,26,27,30,25,28,28,21,2984.txt
25,14,17,15,28,24,22,28,28,21,26,16,26,23,28,29,23,26,27,24,25,25,26,21,2986.txt
17,14,17,15,28,24,22,28,28,21,20,16,26,30,28,28,23,26,27,24,22,25,28,21,2989.txt
7,14,17,23,28,24,22,28,22,21,26,16,26,25,28,27,23,26,27,24,25,25,27,25,2991.txt
7,23,17,15,28,24,22,28,22,21,20,16,26,24,28,29,23,26,27,24,25,25,27,21,2993.txt
7,14,17,15,28,24,22,28,22,21,27,16,26,23,28,27,23,26,27,24,25,25,27,21,2995.txt
7,14,17,15,28,24,22,28,29,21,27,16,26,25,28,27,23,26,27,24,25,25,27,27,2996.txt
28,24,25,26,19,27,25,21,25,24,18,14,16,23,24,15,15,30,12,12,27,10,10,9,2998.txt
7,14,17,15,29,24,22,30,28,26,27,21,27,25,28,28,30,26,27,24,25,28,30,21,3001.txt
7,23,17,15,29,24,22,28,28,28,25,30,27,25,28,29,28,26,27,27,25,29,26,21,3002.txt
25,14,17,15,28,24,22,28,28,21,20,16,26,23,28,29,23,26,27,24,25,25,27,21,3004.txt
25,23,25,15,22,24,22,28,29,21,27,16,22,23,28,27,25,25,27,24,24,25,27,25,3006.txt
7,14,17,15,29,24,22,28,29,26,26,21,27,25,28,28,23,26,27,24,25,28,27,28,3008.txt
7,14,17,15,28,24,22,28,29,21,20,16,26,30,28,27,23,26,27,24,25,25,27,21,3010.txt
7,14,23,23,29,24,22,28,22,26,26,26,27,25,28,28,23,26,27,30,25,28,27,25,3012.txt
25,14,17,15,28,24,22,28,22,21,27,16,26,23,28,27,23,26,27,24,25,25,27,21,3014.txt
7,14,17,15,29,24,22,28,28,26,30,26,27,25,28,28,23,26,27,24,25,28,27,21,3016.txt
7,14,17,15,28,24,22,30,22,21,27,16,26,23,28,27,23,26,27,24,25,28,27,21,3018.txt
25,23,25,15,28,24,22,28,28,21,20,16,24,23,28,29,23,25,27,24,24,28,27,21,3021.txt
7,14,17,15,28,24,22,28,29,21,27,16,26,23,28,27,30,26,27,24,25,25,27,21,3023.txt
7,14,23,15,28,24,28,28,29,21,29,22,26,25,28,27,23,26,27,30,25,25,27,26,3024.txt
7,14,17,15,28,24,22,30,28,21,20,16,26,30,28,28,30,26,27,24,25,28,27,21,3027.txt
7,14,23,23,29,24,22,28,29,26,26,26,27,25,28,28,26,26,27,30,25,28,27,25,3029.txt
7,14,17,15,28,24,22,30,28,21,20,16,26,30,28,27,23,26,27,24,22,25,28,21,3030.txt
7,14,17,15,28,24,22,30,29,21,20,16,26,28,28,27,30,26,27,24,25,25,27,21,3032.txt
25,14,25,15,28,30,22,28,27,21,27,16,23,23,28,29,23,21,27,24,24,25,27,21,3034.txt
7,14,23,15,28,24,30,30,28,28,26,22,29,25,28,29,23,26,27,29,25,25,27,25,3037.txt
7,14,17,15,28,24,22,28,29,21,26,16,26,23,28,27,23,26,27,24,22,25,27,27,3039.txt
7,14,17,15,30,24,22,28,29,30,26,21,27,25,28,28,29,26,27,24,25,27,27,21,3043.txt
7,14,17,15,28,24,22,30,28,28,26,22,26,25,28,27,23,26,27,24,25,25,27,25,3047.txt
7,14,17,23,28,24,22,30,27,21,26,16,26,25,28,27,29,26,27,24,25,27,26,25,3048.txt
7,14,23,23,28,24,22,28,22,28,26,16,29,25,28,28,23,26,27,30,25,25,27,25,3052.txt
20,30,17,26,19,27,25,21,25,24,18,14,16,30,24,15,15,30,30,12,12,10,10,9,3053.txt
7,23,17,15,29,24,22,30,28,27,25,30,27,25,28,30,28,26,27,26,29,27,26,21,3055.txt
7,14,17,15,29,24,22,28,28,30,20,21,27,30,28,29,30,26,27,24,25,25,28,21,3059.txt
7,14,17,15,29,24,22,28,29,26,27,21,27,25,28,28,30,26,27,24,25,28,27,21,3061.txt
7,14,17,15,28,24,22,30,29,21,27,16,26,23,28,27,23,26,27,24,22,25,27,21,3063.txt
7,14,17,15,28,24,22,28,28,28,26,16,29,25,28,28,30,26,27,24,25,25,26,29,3066.txt
7,14,17,15,28,24,22,28,28,21,27,16,26,28,28,27,23,26,27,24,25,28,27,21,3067.txt
7,14,17,15,28,24,22,28,22,28,26,16,29,25,28,27,30,26,27,24,25,25,27,21,3069.txt
7,14,23,23,28,24,22,28,29,21,26,16,26,23,28,27,23,26,27,30,25,25,27,25,3072.txt
7,14,23,15,28,24,22,28,27,28,27,16,29,25,28,27,23,26,27,30,25,25,27,21,3073.txt
7,14,23,15,28,24,22,28,29,28,27,24,29,25,28,28,30,26,27,30,25,28,27,25,3076.txt
7,14,17,15,28,24,22,28,22,21,20,16,26,27,28,27,30,26,27,24,25,27,28,21,3079.txt
2,5,23,15,29,3,11,6,6,6,6,5,27,25,28,28,23,26,27,28,25,25,27,7,3082.txt
7,14,23,15,29,24,22,28,28,26,27,21,27,30,28,29,30,26,27,30,25,28,27,21,3083.txt
7,23,17,15,28,24,22,28,29,21,20,16,26,28,28,27,23,26,27,24,25,25,27,29,3087.txt
17,14,23,23,28,24,22,28,29,21,26,22,26,25,28,27,30,26,27,29,22,25,27,26,3088.txt
7,14,17,15,30,24,22,28,29,26,27,26,27,30,28,28,23,26,27,24,25,25,27,21,3090.txt
7,14,17,15,28,24,28,28,29,28,29,22,29,25,28,29,23,26,27,24,25,25,27,26,3093.txt
7,14,17,15,28,24,22,30,28,21,26,16,26,25,28,27,23,26,27,24,25,25,27,21,3095.txt
7,23,17,15,28,24,22,28,29,21,27,16,26,27,28,27,23,26,27,24,25,25,27,27,3096.txt
7,23,17,15,28,24,22,28,22,28,20,16,29,30,28,29,23,26,27,24,25,25,28,21,3100.txt
25,14,17,15,28,24,22,28,22,21,20,16,26,23,28,29,30,26,27,24,25,25,28,21,3102.txt
7,14,23,15,28,24,22,28,29,28,20,16,29,30,28,28,23,26,27,30,22,25,27,25,3105.txt
7,14,17,15,29,24,22,28,22,26,20,21,27,30,28,28,23,26,27,24,25,28,30,21,3107.txt
7,14,17,15,29,24,22,28,22,26,26,21,27,25,28,28,23,26,27,30,25,28,27,21,3108.txt
26,14,17,15,29,24,22,28,29,30,20,21,27,30,28,28,29,26,27,24,25,27,26,21,3110.txt
7,14,17,15,29,24,22,28,22,26,20,26,27,30,28,28,23,26,27,24,25,25,27,21,3114.txt
7,14,17,15,29,24,22,30,28,26,20,21,27,30,28,28,23,26,27,24,25,25,27,21,3116.txt
26,14,17,15,29,24,22,28,29,30,20,26,27,30,28,28,29,26,29,24,25,30,26,26,3118.txt
7,23,23,23,28,24,22,28,29,21,26,16,26,14,28,27,23,26,27,30,25,25,27,25,3121.txt
7,14,17,23,28,24,22,30,28,28,26,16,29,25,28,28,29,26,27,24,25,27,26,25,3123.txt
25,14,17,15,28,24,22,28,22,21,20,16,26,23,28,27,30,26,27,24,25,25,26,21,3126.txt
7,23,17,15,28,24,22,28,22,28,20,16,29,30,28,27,30,26,27,24,25,28,28,21,3128.txt
7,23,17,15,28,24,22,28,29,21,27,16,26,23,28,27,30,26,27,24,25,27,27,25,3130.txt
7,14,17,15,28,24,22,30,29,21,26,16,26,25,28,27,23,26,27,30,22,25,28,25,3133.txt
7,23,17,15,28,24,22,28,22,21,20,16,26,28,28,27,23,26,27,24,25,25,27,21,3135.txt
25,14,17,15,28,24,22,28,28,21,20,16,26,23,28,29,30,26,27,24,25,27,28,21,3139.txt
7,14,17,15,28,24,22,28,22,28,20,16,29,30,28,29,23,26,27,24,25,25,27,21,3141.txt
7,14,17,15,28,24,22,28,22,21,27,16,26,25,28,27,23,26,27,24,25,25,27,21,3143.txt
25,23,23,23,28,24,22,28,22,21,26,16,26,23,28,27,23,26,27,29,24,25,27,25,3145.txt
7,14,17,15,28,24,22,28,28,28,27,16,29,25,28,27,30,26,27,24,25,25,27,25,3147.txt
7,14,17,15,28,24,22,28,22,21,20,16,26,28,28,27,30,26,27,24,25,25,26,21,3149.txt
7,14,17,15,29,24,22,28,29,26,20,21,27,30,28,28,30,26,27,24,25,25,27,21,3151.txt
7,14,17,15,28,24,22,28,22,21,20,16,26,23,28,27,23,26,27,24,25,25,28,25,3153.txt
7,14,17,15,30,24,22,28,28,26,20,21,27,30,28,28,23,26,27,24,25,25,28,21,3156.txt
7,14,17,15,28,24,22,28,28,26,27,16,29,25,28,28,23,26,27,24,25,25,27,25,3159.txt
7,23,17,15,29,24,22,28,28,30,20,26,27,30,28,28,30,26,25,24,25,29,26,21,3163.txt
7,14,17,15,28,24,22,28,22,21,20,16,26,30,28,27,23,26,27,24,25,25,27,21,3164.txt
7,14,17,15,28,24,22,28,28,28,20,16,26,30,28,27,23,26,27,24,25,27,27,21,3166.txt
7,14,17,15,28,24,22,28,22,21,20,16,26,28,28,29,23,26,27,24,25,25,28,25,3168.txt
7,14,17,23,27,24,22,28,28,26,26,21,27,25,28,28,23,26,27,24,22,25,27,21,3172.txt
7,23,23,15,22,24,22,30,28,27,25,30,27,25,28,29,25,25,27,26,24,25,26,30,3176.txt
7,14,17,15,28,24,22,28,29,21,20,16,26,23,28,27,23,26,27,24,25,25,28,21,3181.txt
7,23,17,15,28,24,22,28,29,21,20,16,26,24,28,27,23,26,27,24,22,25,27,21,3182.txt
7,15,6,5,7,24,15,12,29,21,0,0,21,0,0,11,13,26,27,0,15,0,0,0,3184.txt
7,14,17,15,28,24,22,28,29,21,20,16,26,23,28,29,23,26,27,24,25,25,27,21,3187.txt
7,14,17,15,26,24,22,30,28,26,27,21,27,30,28,28,23,26,27,24,25,25,26,26,3189.txt
29,14,17,15,30,24,22,30,28,30,20,21,27,30,28,28,29,26,29,24,25,27,26,21,3191.txt
7,14,17,15,28,24,22,28,29,28,26,22,29,25,28,29,30,26,27,24,25,30,26,26,3193.txt
7,14,17,15,30,24,22,30,29,26,20,21,27,30,28,28,23,26,27,24,25,28,27,21,3195.txt
7,14,17,15,28,24,22,28,22,21,20,16,26,27,28,27,30,26,27,24,25,28,28,21,3196.txt
7,14,17,15,29,24,22,28,29,30,20,21,27,30,28,28,30,26,27,24,25,25,27,21,3199.txt
7,14,17,15,28,24,22,30,29,21,20,16,26,27,28,29,23,26,27,24,25,28,27,21,3201.txt
26,23,23,23,27,24,22,30,28,30,25,30,27,25,28,29,28,26,25,27,25,29,26,26,3203.txt
7,14,17,15,28,24,22,28,28,26,20,16,29,30,28,29,30,26,27,24,25,28,27,25,3204.txt
13,12,3,27,1,7,12,11,11,11,11,8,7,9,18,13,12,16,16,15,14,12,16,15,3206.txt
7,14,17,15,28,24,22,28,28,21,20,16,26,28,28,29,23,26,29,24,25,25,27,25,3209.txt
7,14,17,15,29,24,22,30,29,30,20,26,27,30,28,28,29,26,27,24,25,27,26,21,3210.txt
7,14,17,15,29,24,22,30,28,26,20,26,27,30,28,28,30,26,27,24,22,28,27,21,3213.txt
29,14,17,15,28,24,22,28,28,21,20,16,26,23,28,29,29,26,25,24,25,30,26,25,3215.txt
7,23,23,23,29,24,30,28,27,26,26,26,27,25,28,28,26,26,27,28,25,28,27,25,3218.txt
26,14,17,24,30,24,22,30,27,30,20,21,10,30,28,28,30,26,27,24,25,27,26,26,3221.txt
7,23,17,15,27,24,22,28,28,30,25,30,27,30,28,29,28,26,27,26,25,29,26,21,3222.txt
29,23,17,15,26,24,22,30,28,26,25,30,27,30,28,28,28,26,27,27,25,30,26,21,3226.txt
7,14,17,15,28,24,22,30,28,21,20,16,26,14,28,27,23,26,27,24,22,25,27,25,3228.txt
28,30,17,26,19,27,25,21,25,24,18,14,16,25,24,15,15,30,30,12,12,10,10,9,3229.txt
7,14,17,15,29,24,22,28,29,30,27,21,27,25,28,28,30,26,27,24,25,27,26,21,3232.txt
7,14,17,15,28,24,22,28,22,21,20,16,26,23,28,27,30,26,27,24,25,25,26,21,3234.txt
25,14,17,15,28,24,22,28,27,21,20,16,26,23,28,27,23,26,27,24,25,28,27,21,3235.txt
7,14,17,15,28,24,22,28,27,21,20,16,26,23,28,27,30,26,27,24,25,27,28,21,3237.txt
7,14,23,15,28,24,22,28,29,26,27,21,27,14,28,28,30,26,27,30,25,25,27,25,3239.txt
7,14,17,15,28,24,22,28,27,21,20,16,26,23,28,27,23,26,27,24,25,25,27,21,3241.txt
7,14,17,15,28,24,22,28,27,21,20,16,26,23,28,29,23,26,27,24,25,25,27,21,3243.txt
7,23,17,15,28,24,22,28,29,21,27,16,26,23,28,29,30,26,27,24,25,25,27,28,3245.txt
25,14,17,15,28,24,22,30,28,21,20,16,26,23,28,29,23,26,27,24,25,29,28,21,3247.txt
20,17,17,26,19,27,25,21,25,24,18,14,16,25,24,15,15,13,30,12,12,10,10,9,3249.txt
7,14,17,15,28,24,22,30,29,28,20,16,29,30,28,28,30,26,27,24,25,25,27,21,3250.txt
26,14,17,15,28,24,22,30,22,28,20,16,29,30,28,28,29,26,27,24,22,27,26,21,3252.txt
7,14,17,15,29,24,22,30,22,30,20,21,27,30,28,28,29,26,25,24,25,30,26,25,3255.txt
7,14,17,15,29,24,22,28,22,30,20,26,27,30,28,29,30,26,27,24,25,28,26,21,3257.txt
26,14,17,15,29,24,22,28,22,30,20,21,27,30,28,28,30,26,25,24,25,30,26,21,3259.txt
28,25,25,26,19,27,25,21,25,24,18,14,16,23,24,15,15,13,30,12,27,10,10,9,3260.txt
7,14,17,15,29,24,22,28,29,26,20,21,27,30,28,28,30,26,27,24,25,28,27,21,3263.txt
7,14,17,15,29,24,22,28,28,26,20,21,27,30,28,28,23,26,27,24,25,28,27,21,3266.txt
7,23,23,23,26,24,28,30,28,30,29,26,27,25,28,28,30,26,27,30,25,25,26,26,3268.txt
28,25,17,26,19,27,25,21,25,24,18,14,16,30,24,15,15,13,30,12,12,10,10,9,3271.txt
7,23,17,15,28,24,22,28,22,28,25,30,29,30,28,30,28,26,27,24,25,25,27,21,3273.txt
28,25,17,26,19,27,25,21,25,24,18,14,16,30,24,15,15,13,30,12,12,10,10,9,3279.txt
25,14,17,15,28,24,22,28,22,21,20,16,26,23,28,27,23,26,27,24,25,28,27,21,3281.txt
7,14,23,15,29,24,22,30,28,26,27,21,27,25,28,28,23,26,27,29,22,28,27,25,3283.txt
7,23,17,15,24,24,22,30,27,30,25,30,27,30,28,28,28,26,27,27,25,30,26,21,3286.txt
26,14,17,15,29,24,22,28,29,30,20,21,27,30,28,28,29,26,25,24,25,30,26,26,3288.txt
27,14,25,22,25,30,22,28,28,21,20,16,22,23,28,27,23,25,27,24,24,28,28,21,3291.txt
24,23,25,29,22,30,22,28,27,21,20,16,20,23,28,27,25,25,27,24,24,28,28,21,3294.txt
17,14,17,15,28,24,22,30,28,28,20,16,29,30,28,28,29,26,25,24,22,30,26,21,3295.txt
7,14,17,15,29,24,22,28,29,26,20,21,27,30,28,28,23,26,27,24,25,28,27,21,3296.txt
10,23,17,24,29,24,16,18,15,15,15,11,10,30,28,26,28,26,25,26,24,25,26,20,3299.txt
7,14,17,15,28,24,22,28,22,21,27,16,26,23,28,27,30,26,27,30,25,27,27,25,3302.txt
7,14,17,15,30,24,22,28,29,26,27,21,27,25,28,29,30,26,27,24,25,28,26,21,3304.txt
26,14,17,15,29,24,22,28,27,26,20,26,27,30,28,29,30,26,27,24,25,27,28,21,3306.txt
7,14,17,15,28,24,22,30,28,26,20,21,27,30,28,28,23,26,27,24,22,25,27,21,3308.txt
7,14,17,15,28,24,22,28,29,21,27,22,26,23,28,29,23,26,27,24,25,28,27,26,3310.txt
7,14,17,15,28,24,22,30,22,21,20,16,26,30,28,27,23,26,27,24,23,28,27,21,3312.txt
25,14,17,15,28,24,22,28,22,21,20,16,23,23,28,27,23,26,27,24,24,25,28,21,3313.txt
7,14,17,15,29,24,22,30,28,30,20,21,27,30,28,28,30,26,27,24,22,28,30,21,3315.txt
25,23,17,15,22,24,22,28,28,21,20,16,23,23,28,27,25,25,27,24,24,29,27,21,3317.txt
25,14,17,15,28,24,22,28,28,21,20,16,26,23,28,27,29,26,27,24,25,27,27,25,3319.txt
7,14,17,15,29,24,22,28,22,26,20,21,27,30,28,28,23,26,27,24,25,28,27,21,3322.txt
17,23,17,15,29,24,22,28,29,26,20,26,27,30,28,28,21,23,27,24,25,28,27,21,3323.txt
7,23,17,15,26,24,22,28,27,30,30,26,27,25,28,28,29,26,27,24,25,30,26,21,3325.txt
25,14,17,15,28,24,22,28,22,21,20,16,26,23,28,27,30,26,27,24,25,30,26,21,3328.txt
7,23,17,15,28,24,22,28,27,21,27,16,26,25,28,29,30,26,27,24,25,28,27,21,3329.txt
29,23,17,15,26,24,22,28,22,30,25,30,6,5,6,5,5,5,5,5,5,5,5,29,3331.txt
7,23,17,15,28,24,22,28,29,28,20,16,29,30,28,27,23,26,27,24,25,25,27,21,3333.txt
7,14,17,15,28,24,22,30,27,21,20,16,26,23,28,27,23,26,27,24,22,28,27,21,3337.txt
7,14,17,15,28,24,22,28,27,30,20,21,27,30,28,28,29,26,27,24,25,27,27,21,3340.txt
7,6,9,8,12,17,18,28,18,17,26,16,29,14,28,29,26,26,27,28,23,28,27,25,3341.txt
7,14,17,15,29,24,22,28,28,26,20,26,27,30,28,28,23,26,25,24,25,25,27,21,3344.txt
7,14,17,15,28,24,22,28,22,28,20,16,29,30,28,29,23,26,27,24,25,25,28,21,3346.txt
7,23,17,15,26,24,22,28,27,30,25,30,27,30,28,26,28,26,27,26,25,30,26,21,3348.txt
27,14,25,22,25,30,22,28,22,21,20,16,22,23,28,27,23,25,27,24,24,25,27,21,3350.txt
7,14,17,15,28,24,22,28,28,21,20,16,26,30,28,29,23,26,27,24,25,25,27,21,3351.txt
7,14,17,15,28,24,22,28,22,21,20,16,26,23,28,27,30,26,27,24,25,27,27,21,3353.txt
28,25,17,26,19,27,25,21,25,24,18,14,16,30,24,15,15,13,30,12,12,10,10,9,3355.txt
7,23,17,15,29,24,22,28,29,26,25,26,27,30,28,30,30,26,27,30,25,27,27,25,3359.txt
25,14,17,15,28,24,22,28,22,21,20,16,26,23,28,27,30,26,27,24,25,28,27,21,3360.txt
7,14,17,15,29,24,22,28,29,26,20,26,27,30,28,28,23,26,27,24,25,28,27,26,3362.txt
25,14,17,15,28,24,22,28,22,21,20,16,26,23,28,27,23,26,27,24,25,28,28,21,3365.txt
13,23,17,15,26,24,22,30,27,29,25,30,27,30,28,26,28,26,25,26,25,25,26,21,3367.txt
7,14,17,15,29,24,22,30,29,26,20,21,27,30,28,28,23,26,27,24,25,28,26,21,3370.txt
25,14,17,15,28,24,22,28,22,21,20,16,26,23,28,27,30,26,27,24,25,25,27,21,3372.txt
7,14,17,15,28,24,22,28,22,26,20,26,27,30,28,28,23,26,27,24,25,28,27,21,3373.txt
8,23,3,27,1,7,12,11,11,11,11,8,7,9,18,13,12,16,16,15,14,12,16,15,3375.txt
7,14,17,15,28,24,22,28,28,28,20,16,29,30,28,29,23,26,27,24,25,29,27,21,3378.txt
7,6,9,8,12,17,18,30,18,17,25,30,27,14,28,30,26,26,27,27,29,27,26,25,3380.txt
7,14,23,23,29,24,22,30,28,26,26,26,27,25,28,28,30,26,27,28,22,28,27,25,3382.txt
26,14,17,15,29,24,22,30,28,30,20,21,27,30,28,28,30,26,25,24,25,30,26,21,3384.txt
7,14,17,15,29,24,22,28,22,26,20,21,27,30,28,29,30,26,27,24,25,25,28,21,3386.txt
7,14,17,15,29,24,22,28,29,26,20,21,27,30,28,28,23,26,27,24,25,28,27,25,3390.txt
7,14,17,15,28,24,22,28,27,21,20,16,26,27,28,27,23,26,27,24,25,28,27,21,3391.txt
17,14,17,15,28,24,22,28,29,30,20,22,29,30,28,28,21,23,25,24,22,30,26,26,3393.txt
7,14,17,15,28,24,22,28,22,28,20,16,29,30,28,28,30,26,27,24,25,25,27,21,3396.txt
26,14,17,15,28,24,22,28,27,21,20,16,26,28,28,27,29,26,27,24,25,30,26,21,3397.txt
7,14,17,15,28,24,22,28,22,26,20,16,29,30,28,28,30,26,27,24,25,28,28,21,3401.txt
28,25,25,26,19,7,14,16,13,13,13,10,9,11,21,10,10,10,10,10,10,14,13,11,3403.txt
7,23,17,15,28,24,22,28,27,21,20,16,26,23,28,27,23,26,27,24,25,25,27,21,3405.txt
7,14,17,15,28,24,22,28,27,26,20,21,27,30,28,28,23,26,27,24,25,28,27,21,3407.txt
8,23,17,15,26,24,22,28,27,30,20,26,27,30,28,28,30,26,27,24,25,30,26,21,3408.txt
28,24,25,25,19,27,25,21,25,24,18,14,16,23,24,15,15,13,12,12,27,10,10,9,3410.txt
7,14,17,15,29,24,22,30,30,30,26,26,27,25,28,28,30,26,27,24,25,25,26,25,3414.txt
7,14,17,15,28,24,22,28,29,21,20,16,26,23,28,27,23,26,27,24,25,28,27,21,3416.txt
7,23,17,15,29,24,22,30,28,29,25,30,27,30,28,27,28,26,27,27,25,30,26,21,3417.txt
25,23,17,15,28,24,22,28,22,21,20,16,26,23,28,27,23,26,27,24,25,25,28,21,3420.txt
7,14,17,15,28,24,22,28,27,28,20,16,29,30,28,29,23,26,27,24,25,28,28,21,3421.txt
7,14,17,15,28,24,22,28,28,21,20,16,26,26,28,27,23,26,27,24,25,25,28,21,3423.txt
7,23,17,15,29,24,22,28,27,29,25,30,27,30,28,29,28,26,27,26,25,28,27,21,3426.txt
7,23,17,15,29,24,22,30,27,27,25,30,27,30,28,26,28,26,27,26,25,30,26,21,3428.txt
13,23,3,27,1,14,12,11,11,11,11,8,7,9,18,13,12,16,16,15,14,12,16,15,3430.txt
10,23,17,27,1,7,12,11,11,11,11,8,7,9,18,13,12,16,16,15,14,12,16,15,3431.txt
7,14,17,15,28,24,22,30,27,28,20,16,29,30,28,28,23,26,27,24,25,28,27,21,3434.txt
13,14,17,15,28,24,22,30,28,30,20,21,6,5,6,5,5,5,5,5,5,5,5,21,3435.txt
7,14,17,15,28,24,22,28,22,28,20,16,29,30,28,29,23,26,27,24,25,28,27,21,3438.txt
7,14,17,15,29,24,22,30,28,26,27,21,27,25,28,28,23,26,27,24,25,25,27,21,3441.txt
13,25,17,26,19,27,25,23,25,24,18,14,16,21,24,15,15,13,30,12,12,14,10,9,3443.txt
7,14,17,15,30,24,22,28,29,26,20,21,27,30,28,28,23,26,27,24,25,25,27,21,3444.txt
7,14,23,23,30,24,28,30,28,26,29,26,27,14,28,28,26,26,27,28,25,28,27,25,3447.txt
7,14,17,15,28,24,22,28,27,21,27,16,26,25,28,27,23,26,27,24,25,28,27,28,3450.txt
7,14,17,15,28,24,22,30,28,26,27,21,27,25,28,28,23,26,27,24,22,28,27,21,3452.txt
7,14,17,15,28,24,22,28,28,21,20,16,26,28,28,29,23,26,27,24,25,25,27,21,3454.txt
7,14,17,15,28,24,22,28,22,28,20,16,29,30,28,28,30,26,27,24,25,25,27,21,3455.txt
7,14,17,15,29,24,22,30,28,30,20,21,27,30,28,28,30,26,27,24,22,25,27,21,3458.txt
7,23,17,15,28,24,22,28,29,21,20,16,26,27,28,27,23,26,27,24,22,25,27,25,3460.txt
7,23,23,23,29,24,22,30,28,26,25,30,27,25,28,28,28,26,27,30,25,25,27,25,3462.txt
7,14,17,15,28,24,22,30,27,21,20,16,26,23,28,27,23,26,27,24,25,28,27,21,3464.txt
13,12,17,15,26,7,14,16,13,13,13,10,9,11,21,10,10,10,10,10,10,16,15,14,3466.txt
7,14,17,15,28,24,22,28,28,26,20,26,27,30,28,28,23,26,27,24,25,25,27,21,3468.txt
7,14,17,15,29,24,22,28,27,26,20,21,27,30,28,29,23,26,27,24,25,25,28,21,3470.txt
26,14,17,15,28,24,22,30,28,30,20,16,6,5,6,5,5,5,5,5,5,5,5,25,3471.txt
7,14,17,15,29,24,22,28,29,26,20,26,27,30,28,29,23,26,27,24,25,28,27,21,3473.txt
7,14,17,15,28,24,22,28,29,28,20,16,29,30,28,27,23,26,27,24,25,25,27,25,3475.txt
7,14,23,15,28,24,22,30,28,21,20,16,26,14,28,27,23,26,27,28,23,25,27,25,3479.txt
7,14,17,15,29,24,22,28,28,26,26,26,27,25,28,28,23,26,27,24,25,25,27,26,3481.txt
7,14,23,23,28,24,22,28,29,21,27,16,26,14,28,27,23,26,27,30,25,28,27,25,3483.txt
7,14,17,15,28,24,22,30,22,30,20,16,29,30,28,28,30,26,27,24,25,27,28,21,3485.txt
7,14,17,15,29,24,22,30,28,26,27,26,27,25,28,28,23,26,27,24,22,28,27,21,3487.txt
7,14,17,15,28,24,22,28,27,21,20,16,26,23,28,27,23,26,27,24,25,28,27,21,3489.txt
26,14,17,15,28,24,22,28,27,21,20,16,26,27,28,27,29,26,27,24,25,30,26,21,3490.txt
7,14,17,15,28,24,22,28,22,21,20,16,26,23,28,27,30,26,27,24,25,25,26,21,3493.txt
7,14,17,15,28,24,22,28,22,28,20,16,29,30,28,28,23,26,27,24,25,25,28,21,3496.txt
13,14,17,15,28,24,22,28,27,21,20,16,6,5,6,5,5,5,5,5,5,5,5,25,3497.txt
7,14,17,15,28,24,22,28,22,21,20,16,26,30,28,27,23,26,27,24,25,25,28,21,3501.txt
7,14,17,15,28,24,22,30,28,21,20,16,26,28,28,27,23,26,27,24,22,25,27,21,3503.txt
7,14,17,15,29,24,22,28,28,26,20,21,27,30,28,29,23,26,27,24,25,28,27,21,3505.txt
29,14,17,15,30,24,22,28,27,30,20,21,27,30,28,28,29,26,25,24,25,27,26,21,3508.txt
7,14,17,15,29,24,22,28,28,27,25,30,27,30,28,29,28,26,25,26,29,29,26,21,3510.txt
7,14,17,15,30,24,22,28,27,26,20,26,27,30,28,29,23,26,27,24,25,28,28,21,3511.txt
7,14,17,15,28,24,22,28,29,28,20,16,29,30,28,29,23,26,27,24,25,25,27,21,3513.txt
7,14,17,15,29,24,22,28,27,26,20,21,27,30,28,29,29,26,25,24,25,28,28,21,3516.txt
7,14,17,15,28,24,22,30,29,21,20,16,26,28,28,27,23,26,27,24,25,28,27,21,3518.txt
7,14,17,15,28,24,22,28,29,21,20,16,26,28,28,27,23,26,27,24,25,25,27,26,3521.txt
