0,1,2,3,4,5,6,7,8,9,10,11,12,13,14,15,16,17,18,19,20,21,22,23,24,25,26,27,28,29,30,31,32,33,34,35,36,37,38,39,40,41,42,43,44,45,46,47,48,49,50,51,52,53,54,55,56,57,58,59,60,61,62,63,64,65,66,filename
5,13,0,0,6,6,0,1,0,16,13,0,16,1,0,1,10,4,0,27,0,0,0,2,0,0,6,8,12,0,0,5,5,2,0,3,0,6,2,13,3,13,0,4,7,5,0,0,0,4,0,0,5,5,0,0,19,0,0,17,1,1,0,6,0,4,5,2.txt
5,12,4,1,6,6,0,0,3,7,26,2,2,9,15,1,7,4,0,18,0,27,0,2,6,2,4,9,5,20,19,4,8,2,0,20,1,15,0,1,1,21,5,5,29,12,0,5,0,0,0,0,5,7,5,3,1,0,4,18,4,1,0,10,0,10,2,5.txt
0,0,0,0,3,9,0,1,8,30,27,0,20,12,1,0,21,8,0,2,2,0,1,3,0,16,30,20,21,14,0,1,6,1,0,21,0,6,9,0,10,0,3,14,22,0,6,0,0,0,1,12,7,1,0,0,14,1,1,0,1,0,1,6,0,11,11,9.txt
5,11,4,1,6,6,0,0,3,16,13,2,2,9,1,10,7,4,0,11,0,20,0,2,10,6,20,5,5,4,0,4,5,2,0,6,0,4,0,6,4,17,5,4,4,12,4,0,0,0,0,0,2,3,0,0,15,0,0,5,0,1,0,4,5,17,5,12.txt
5,11,0,1,6,6,0,1,0,0,13,0,2,9,0,1,7,4,0,4,0,0,0,2,1,28,3,9,0,0,0,4,1,2,0,4,1,6,0,14,0,17,4,14,7,12,0,0,0,0,0,0,2,0,0,0,0,0,0,23,11,1,0,6,3,10,5,14.txt
5,11,3,1,6,6,0,7,0,0,26,0,2,9,0,9,22,4,0,5,0,3,0,2,1,6,20,8,0,6,0,4,5,2,0,6,0,3,0,21,4,22,5,4,4,12,0,0,0,8,0,0,2,3,0,0,28,0,0,5,3,1,0,5,0,4,3,16.txt
5,11,3,1,6,6,0,0,3,17,13,2,2,9,1,10,12,4,0,5,0,3,0,2,10,6,20,5,5,0,0,4,5,2,0,4,0,0,0,9,4,17,5,4,4,12,0,0,0,2,0,0,2,3,0,0,19,0,0,5,0,1,0,4,0,8,5,17.txt
5,11,0,1,6,6,0,0,0,0,0,2,2,9,0,1,7,4,0,10,0,0,0,2,1,6,20,0,5,0,0,4,1,2,0,7,0,4,0,14,4,17,15,7,14,12,0,0,0,0,0,0,2,3,0,0,19,0,0,5,3,1,0,5,0,4,5,21.txt
5,11,3,1,6,6,0,0,3,13,13,2,2,9,0,1,7,4,0,10,0,3,0,2,1,6,4,17,0,6,0,4,1,2,0,6,0,0,0,14,4,21,4,15,7,12,0,0,0,0,0,0,2,3,0,0,1,0,0,5,0,1,0,4,3,4,5,23.txt
5,11,0,1,6,6,0,1,3,2,25,2,13,9,1,1,7,4,0,24,0,0,0,2,10,28,21,9,18,0,0,4,5,2,0,3,1,6,5,25,2,12,5,4,7,12,0,0,0,5,0,1,2,0,0,0,19,0,0,25,2,1,0,7,0,10,5,24.txt
5,11,0,1,6,6,0,1,0,0,13,0,16,9,0,1,12,4,6,0,0,0,0,2,1,13,7,9,18,0,1,4,1,2,0,3,1,2,5,0,2,6,4,14,7,12,0,0,0,0,0,1,2,1,0,0,0,0,0,19,2,1,0,0,0,10,4,26.txt
5,11,0,1,6,6,0,0,3,0,0,2,2,9,7,1,7,4,0,5,0,15,0,2,10,7,3,0,5,6,0,4,1,2,0,0,0,3,0,9,4,17,8,14,4,12,0,0,0,0,0,0,5,3,0,0,6,0,0,5,3,1,0,10,0,4,5,28.txt
10,11,0,1,6,6,0,8,0,0,13,0,16,3,0,10,1,3,0,6,0,0,0,0,1,3,7,5,18,15,0,4,1,2,0,3,1,6,5,19,2,3,9,4,3,12,0,0,0,0,9,1,6,1,0,0,15,1,1,3,1,1,0,6,0,2,5,30.txt
5,12,4,1,6,6,0,0,0,13,29,0,2,9,0,10,5,4,1,10,0,0,0,2,10,22,4,5,28,0,4,4,8,2,0,20,2,0,4,1,1,19,8,5,21,13,0,0,0,0,0,1,5,2,5,9,15,0,0,10,4,1,0,14,5,10,8,32.txt
5,11,0,1,6,6,0,8,0,20,26,0,15,3,0,10,13,4,0,15,0,22,0,2,1,23,7,5,6,6,0,4,5,2,0,3,1,6,5,13,3,5,5,4,7,12,5,0,0,5,9,1,2,1,0,0,17,1,0,3,1,1,0,5,7,2,3,34.txt
5,5,3,0,6,6,0,0,3,0,13,2,2,1,1,1,10,4,0,11,0,3,0,2,0,0,20,9,5,3,0,5,5,2,0,6,0,19,0,14,4,17,0,4,7,5,0,0,0,7,0,0,2,3,0,0,17,0,0,5,15,1,0,4,0,4,5,36.txt
5,11,0,1,6,6,0,0,3,0,0,0,2,9,0,1,7,4,0,11,0,17,0,2,1,6,3,0,0,0,0,4,1,2,0,7,1,0,0,0,4,17,4,14,12,12,0,0,0,3,0,0,2,3,0,0,14,0,0,5,0,1,0,6,3,0,5,40.txt
5,11,0,1,6,6,0,11,0,12,13,0,16,9,0,10,12,4,0,24,0,17,0,2,1,13,21,4,18,0,0,4,8,2,0,3,0,6,2,4,3,11,5,3,4,12,0,0,0,2,0,0,2,0,0,0,15,0,0,25,1,1,0,14,0,0,5,41.txt
5,11,0,1,6,6,0,0,0,0,26,0,2,9,0,1,7,4,0,5,0,6,0,2,1,6,3,9,0,6,0,4,1,2,0,4,0,3,0,0,4,17,4,14,7,12,0,0,0,2,0,0,5,3,0,0,1,0,0,5,3,1,0,5,0,4,7,49.txt
5,11,0,1,6,6,0,1,0,19,0,0,13,9,0,1,7,4,0,15,0,0,0,2,1,23,7,0,18,4,0,4,1,2,0,3,0,6,5,13,3,6,5,4,10,12,0,0,0,0,0,1,2,1,0,0,25,0,0,22,1,1,0,6,3,16,5,53.txt
5,11,0,1,6,6,0,8,0,20,13,0,16,3,0,10,8,4,0,17,0,0,0,2,1,13,7,4,18,0,0,4,1,2,0,3,0,6,5,16,2,6,4,11,6,12,0,0,0,0,0,1,2,1,0,0,14,0,0,7,1,1,0,0,0,0,5,55.txt
5,11,0,1,6,6,0,1,0,0,0,0,2,9,0,1,7,4,0,6,0,0,0,2,1,28,7,0,7,6,0,4,1,2,0,3,1,2,5,2,8,7,9,14,3,12,0,0,0,0,0,1,2,1,0,1,1,0,0,4,2,1,0,0,0,10,5,57.txt
5,11,3,1,6,6,0,0,0,0,0,0,2,9,0,1,7,4,0,11,0,3,0,2,1,6,3,0,0,0,0,4,1,2,0,0,1,0,0,0,0,17,4,14,0,12,0,0,0,2,0,0,2,3,0,6,14,0,0,5,0,1,0,0,3,16,6,60.txt
5,11,0,1,6,6,0,1,0,0,13,0,16,3,0,1,1,4,0,17,0,0,0,0,1,29,7,9,18,15,1,4,1,2,0,3,1,2,5,26,14,3,4,9,7,12,0,0,0,0,9,1,6,1,4,6,19,1,0,3,2,1,0,0,0,2,4,61.txt
5,11,3,1,6,6,0,1,0,0,0,2,2,9,7,1,7,4,0,4,0,28,0,2,1,28,3,0,0,6,0,4,1,2,0,4,1,6,0,0,4,17,4,14,0,12,0,0,0,2,0,1,2,0,0,0,1,0,0,18,10,1,0,8,0,10,5,63.txt
5,10,0,1,6,6,0,8,0,20,13,0,16,9,0,10,7,4,6,6,0,0,0,2,1,3,7,5,18,5,1,4,5,2,0,3,1,2,5,1,12,5,5,5,3,12,0,0,0,0,0,1,2,1,5,9,10,0,0,19,2,1,0,0,0,10,4,65.txt
5,12,0,1,6,6,0,9,0,0,26,2,2,9,1,1,7,4,1,15,0,0,0,2,6,3,7,9,13,2,8,4,1,2,0,17,1,2,0,1,1,6,5,5,29,12,0,3,0,0,0,3,0,1,5,5,1,0,4,19,4,1,0,8,0,10,2,68.txt
5,13,0,0,6,6,0,1,3,0,26,2,13,1,1,1,4,4,0,24,0,0,0,2,0,0,7,0,6,3,0,5,1,0,0,3,0,6,5,0,3,6,0,14,8,3,0,0,0,0,0,0,2,0,0,0,1,0,0,24,1,1,0,9,0,4,3,71.txt
5,11,3,1,6,6,0,0,0,13,26,2,2,23,2,10,7,4,0,5,0,3,0,2,10,6,4,5,5,6,0,4,5,2,0,4,0,12,0,9,6,22,5,4,4,12,4,6,0,0,0,0,2,3,0,0,1,0,4,5,3,1,0,4,0,4,3,72.txt
9,11,0,1,6,6,0,0,0,0,0,0,2,9,0,9,7,4,0,5,0,10,0,2,1,19,3,0,0,0,0,4,1,2,0,0,0,0,0,2,4,17,1,14,3,12,0,0,0,2,0,0,2,3,0,0,0,0,0,5,0,1,0,0,0,4,5,76.txt
5,11,4,1,6,6,0,1,0,0,0,0,15,3,0,1,1,4,0,0,0,1,0,0,1,13,7,0,18,8,0,4,1,2,0,3,0,6,5,0,3,4,4,17,0,12,0,0,0,0,8,1,3,1,0,0,19,1,0,3,1,1,0,6,7,6,4,78.txt
5,11,4,1,6,6,0,0,3,13,0,0,2,9,0,1,12,4,0,9,0,12,0,2,1,7,4,0,0,4,0,4,5,2,0,0,0,4,0,29,4,21,5,4,4,12,0,0,0,1,0,0,5,3,0,0,18,0,0,5,0,1,0,14,3,4,5,81.txt
5,11,0,1,6,6,0,1,0,0,0,0,13,3,0,1,8,4,0,15,0,0,0,2,1,13,7,0,4,0,0,4,1,2,0,3,0,6,5,13,2,6,5,14,0,12,0,0,0,0,0,1,2,1,0,0,0,0,0,4,1,1,0,0,0,0,5,84.txt
5,11,0,1,6,6,0,0,0,0,7,0,2,9,0,1,7,4,0,11,0,17,0,2,1,6,3,0,0,0,0,4,1,2,0,0,0,4,0,9,4,17,5,18,4,12,0,0,0,0,0,0,5,3,0,0,0,0,0,5,0,1,0,6,0,4,5,86.txt
10,11,0,1,6,9,0,1,5,30,14,2,15,13,0,0,21,11,0,7,0,0,1,3,1,29,17,20,20,15,0,4,7,2,0,26,1,6,1,9,2,23,5,6,22,12,0,0,0,0,9,7,7,1,0,0,19,1,1,3,1,0,0,1,0,2,5,89.txt
5,11,0,1,6,6,0,0,0,0,0,0,2,9,0,1,12,4,0,5,0,13,0,2,1,6,3,0,0,0,0,4,1,2,0,0,0,0,0,0,0,17,4,14,0,12,0,0,0,2,0,0,2,3,0,0,0,0,0,5,0,1,0,0,0,4,5,90.txt
5,11,3,1,6,6,0,0,0,0,0,2,2,9,0,1,7,4,0,5,0,28,0,2,1,6,3,0,0,0,0,4,1,2,0,14,0,0,0,0,4,17,4,14,0,12,0,0,0,2,0,0,2,3,0,0,0,0,0,5,0,1,0,0,0,4,5,92.txt
9,11,0,1,6,6,0,3,0,0,0,0,2,9,0,1,7,4,0,16,0,1,0,2,1,28,20,0,15,0,4,4,1,2,0,7,1,2,0,1,1,15,1,5,13,12,0,0,0,0,0,1,2,1,5,6,19,0,0,22,4,1,0,0,7,10,4,95.txt
5,13,3,0,6,6,0,1,3,9,0,2,13,1,15,1,18,4,0,23,0,3,0,2,0,0,18,0,12,0,0,5,3,2,0,3,0,6,2,9,3,21,0,19,4,15,0,0,0,0,0,0,2,5,0,0,18,0,0,20,1,1,0,7,8,17,5,97.txt
5,11,0,1,6,6,0,0,0,0,0,0,2,9,0,1,7,4,0,11,0,17,0,2,1,6,20,0,0,0,0,4,1,2,0,7,0,0,0,13,0,17,6,15,8,12,0,0,0,0,0,0,2,3,0,0,19,0,0,5,0,1,0,0,3,16,5,98.txt
5,11,0,1,6,6,0,0,0,0,0,2,2,9,0,1,7,4,0,11,0,0,0,2,1,6,20,0,0,0,0,4,1,2,0,0,0,0,0,13,4,17,5,15,0,12,0,0,0,0,0,0,5,3,0,0,19,0,0,5,0,1,0,0,0,4,6,100.txt
5,11,0,1,6,6,0,1,0,0,0,2,2,9,0,1,7,4,0,24,0,0,0,2,1,13,16,0,12,0,0,4,1,2,0,3,0,6,2,0,4,16,4,18,0,12,0,0,0,0,0,0,2,5,0,0,0,0,0,23,1,1,0,0,3,4,5,102.txt
5,11,4,1,6,6,0,1,0,0,0,0,2,9,0,1,12,4,0,10,0,0,0,2,1,6,13,0,0,5,0,4,1,2,0,0,0,4,0,27,0,21,4,9,0,12,0,0,0,0,0,0,2,3,0,0,10,0,0,5,3,1,0,5,0,0,5,105.txt
5,11,0,1,6,6,0,0,0,0,0,0,2,9,0,1,7,4,0,5,0,0,0,2,1,6,3,0,0,0,0,4,1,2,0,4,0,0,0,0,4,17,4,14,9,12,0,0,0,0,0,0,2,3,0,0,0,0,0,5,0,1,0,0,0,0,5,108.txt
5,11,3,1,6,6,0,0,0,2,29,0,2,9,0,9,7,4,0,10,0,3,0,2,1,6,20,0,0,0,0,4,1,2,0,0,2,0,0,13,0,21,5,4,0,12,0,0,0,2,0,0,5,3,0,0,19,0,0,5,0,1,0,0,0,4,5,110.txt
5,11,0,1,6,6,0,0,0,0,26,0,2,9,0,1,7,4,0,24,0,0,0,2,1,28,3,0,25,6,1,4,1,2,0,0,1,19,0,0,4,17,4,14,0,12,0,0,0,0,0,0,2,5,0,1,1,0,0,18,11,1,0,6,0,1,3,112.txt
5,13,4,0,6,6,0,1,3,18,0,0,13,1,0,1,19,4,0,18,0,0,0,2,0,13,21,0,8,5,0,4,5,2,0,3,0,6,2,2,3,21,9,4,3,9,0,0,0,0,0,0,2,7,0,0,18,0,0,17,1,1,0,15,0,4,5,114.txt
5,11,6,1,6,6,0,1,0,11,0,0,13,9,0,1,7,4,0,8,0,27,0,2,1,2,7,0,7,6,0,4,8,2,0,3,0,6,5,25,3,21,5,3,5,12,0,0,0,0,0,1,2,2,0,0,16,0,0,11,1,1,0,14,3,4,5,116.txt
5,11,0,1,6,6,0,0,0,0,13,0,2,9,0,1,7,4,0,5,0,0,0,2,1,6,20,9,0,0,0,4,1,2,0,4,1,4,0,14,4,17,6,11,7,12,0,0,0,0,0,0,5,3,0,0,19,0,0,5,0,1,0,5,0,10,5,118.txt
9,12,0,1,6,6,0,0,0,2,29,0,2,9,8,1,7,4,0,11,0,20,0,2,1,22,3,9,0,6,0,4,1,2,0,20,1,3,0,1,1,17,1,5,7,12,0,5,0,0,0,10,5,1,5,6,1,0,4,5,13,1,0,5,7,10,3,121.txt
10,13,0,0,6,9,0,1,5,0,0,2,15,3,1,1,1,3,0,8,0,0,0,0,0,3,17,0,2,26,0,4,7,2,0,3,0,6,5,13,2,3,5,10,9,8,0,0,0,0,7,12,11,1,0,0,19,1,1,3,1,1,0,7,3,2,5,123.txt
5,13,4,0,6,6,0,0,3,14,0,2,2,1,0,1,4,4,0,10,0,15,0,2,0,0,4,0,5,0,0,5,1,0,0,7,0,3,0,13,4,17,0,4,10,2,0,0,0,0,0,0,2,3,0,0,18,0,0,5,3,1,0,4,3,4,12,124.txt
5,11,0,1,6,6,0,0,0,0,0,0,2,9,0,1,7,4,0,5,0,0,0,2,1,6,3,0,0,6,0,4,1,2,0,0,0,3,0,0,0,17,4,14,0,12,0,0,0,0,0,0,5,3,0,0,1,0,0,5,3,1,0,5,0,4,5,126.txt
5,11,0,1,6,6,0,0,0,0,0,2,2,9,0,1,12,4,0,11,0,17,0,2,1,6,3,0,0,5,0,4,1,2,0,7,0,0,0,14,4,17,4,10,10,12,0,0,0,0,0,0,2,3,0,0,23,0,0,5,0,1,0,6,7,17,5,128.txt
5,11,0,1,6,6,0,0,0,0,28,0,2,9,0,1,7,4,0,5,0,14,0,2,10,11,3,0,0,0,0,4,1,2,0,0,0,3,0,0,4,17,4,14,0,12,0,0,0,2,0,0,2,3,0,0,0,0,0,5,3,1,0,5,0,4,5,130.txt
5,11,4,1,6,6,0,0,3,19,0,2,2,9,0,1,22,4,0,30,0,0,0,2,2,6,20,0,5,0,0,4,1,2,0,0,0,5,0,13,4,21,6,4,0,12,0,0,0,0,0,0,2,3,0,0,3,0,0,5,0,1,0,4,0,4,5,132.txt
5,11,0,1,6,6,0,1,0,0,0,0,13,9,0,1,7,4,0,16,0,0,0,2,1,27,7,0,18,5,1,4,1,2,0,3,1,6,5,13,3,7,6,14,0,12,0,0,0,0,0,1,3,1,0,0,9,0,0,8,2,1,0,0,0,10,5,135.txt
5,11,0,1,6,6,0,0,0,0,13,0,2,9,0,9,7,4,0,5,0,10,0,2,1,19,3,11,0,0,0,4,1,2,0,6,0,0,0,2,4,22,1,14,23,12,0,0,0,6,0,0,5,3,0,0,0,0,0,5,0,1,0,0,0,4,5,137.txt
5,11,0,1,6,6,0,0,0,16,13,0,2,9,0,1,7,4,0,11,0,0,0,2,1,6,20,0,0,0,0,4,1,2,0,6,1,0,0,22,4,17,5,4,4,12,0,0,0,0,0,0,2,3,0,4,3,0,0,18,4,1,0,6,0,10,5,141.txt
5,11,0,1,6,6,0,1,0,18,0,0,2,9,0,1,7,4,0,10,0,0,0,2,1,6,20,3,0,0,0,4,1,2,0,4,1,4,0,14,4,17,4,6,7,12,0,0,0,0,0,0,2,3,0,0,19,0,0,18,14,1,0,5,0,10,9,144.txt
5,11,0,1,6,6,0,1,3,0,0,2,2,9,0,1,7,4,0,15,0,10,0,2,1,28,20,0,0,5,0,4,1,2,0,7,1,2,0,1,1,30,5,5,13,12,0,0,0,0,0,1,2,1,5,6,25,0,0,4,4,1,0,8,0,10,5,145.txt
5,11,3,1,6,6,0,0,0,0,26,0,2,9,0,1,7,4,0,5,0,3,0,2,1,6,3,0,0,6,0,4,1,2,0,0,0,13,0,0,0,17,4,14,0,12,0,0,0,2,0,0,5,3,0,0,1,0,0,5,3,1,0,5,0,0,3,147.txt
5,11,4,1,6,6,0,1,0,0,0,0,2,1,0,1,12,4,0,19,0,0,0,2,1,6,20,0,8,0,0,4,1,2,0,3,0,6,2,13,0,17,6,4,15,12,0,0,0,0,0,0,5,5,0,0,18,0,0,23,1,1,0,11,3,16,5,149.txt
5,11,0,1,6,6,0,1,3,0,13,2,16,9,14,1,12,4,0,23,0,0,0,2,2,13,7,9,4,0,0,4,1,2,0,3,1,6,5,14,2,25,4,9,7,12,0,0,0,0,0,1,2,0,0,0,19,0,0,24,1,1,0,0,3,10,5,151.txt
5,11,0,1,6,6,0,0,0,0,0,0,2,9,0,1,7,4,0,11,0,0,0,2,1,6,28,0,0,0,0,4,1,2,0,13,1,0,0,13,1,17,5,8,19,12,0,0,0,2,0,0,5,3,0,4,14,0,0,5,0,1,0,0,0,4,6,154.txt
5,11,0,1,6,6,0,0,3,0,0,2,2,9,0,1,7,4,0,5,0,0,0,2,1,6,3,0,0,0,0,4,1,2,0,4,0,4,0,0,4,17,4,14,7,12,0,0,0,0,0,0,5,3,0,0,0,0,0,5,0,1,0,12,3,4,5,156.txt
5,11,0,1,6,6,0,1,0,0,0,0,13,9,0,1,7,4,0,7,0,0,0,2,1,24,7,0,18,0,0,4,1,2,0,3,1,6,5,4,2,6,5,8,4,12,0,0,0,0,0,1,3,1,0,0,19,0,0,4,2,1,0,5,0,10,5,158.txt
5,11,3,1,6,6,0,0,3,0,0,0,2,9,0,1,7,4,0,11,0,3,0,2,1,6,20,0,5,0,0,4,1,2,0,7,0,19,0,13,4,17,5,4,16,12,0,0,0,2,0,0,2,3,0,0,30,0,0,5,7,1,0,6,0,4,4,160.txt
5,11,0,1,6,6,0,1,0,0,13,0,2,1,0,1,20,4,0,11,0,0,0,2,1,6,12,23,0,0,0,4,1,2,0,6,0,0,0,11,4,17,5,6,7,12,0,0,0,0,0,0,2,3,0,0,19,0,0,5,0,1,0,0,0,18,9,161.txt
10,13,0,0,6,9,0,1,5,29,14,0,13,3,0,1,1,3,0,15,0,0,1,3,0,0,17,16,20,10,0,5,0,2,0,5,0,6,1,13,2,21,5,4,1,6,0,0,0,0,5,2,1,1,0,0,19,1,1,3,1,1,0,0,3,16,4,163.txt
5,11,0,1,6,6,0,0,0,0,0,0,2,9,0,1,7,4,0,5,0,0,0,2,1,6,3,0,0,0,0,4,1,2,0,4,1,4,0,0,0,17,4,14,12,12,0,0,0,0,0,0,5,3,0,0,0,0,0,5,0,1,0,6,0,1,5,165.txt
5,11,0,1,6,6,0,1,0,0,13,0,15,3,0,1,26,4,0,17,0,0,0,0,1,3,7,9,18,15,1,4,7,2,0,3,1,2,5,14,3,3,4,14,7,12,0,0,0,0,9,1,6,1,0,1,14,1,0,19,2,1,0,6,2,2,6,167.txt
5,11,0,1,6,6,0,1,0,0,0,0,13,3,0,1,13,4,0,0,0,0,0,2,1,3,7,0,4,0,0,4,1,2,0,3,1,6,5,0,2,5,4,14,0,12,0,0,0,0,9,1,2,1,0,0,0,1,0,3,2,1,0,0,3,2,5,169.txt
5,11,0,1,6,6,0,0,3,0,13,2,2,9,1,1,7,4,0,5,0,17,0,2,10,6,3,9,0,0,0,4,1,2,0,4,0,4,0,13,4,17,5,18,7,12,0,0,0,2,0,0,2,3,0,0,0,0,0,5,0,1,0,5,0,4,5,171.txt
5,11,0,1,6,6,0,1,0,0,13,0,13,3,0,1,13,4,0,8,0,0,0,0,1,3,7,9,18,0,1,4,1,2,0,3,1,6,5,25,3,4,5,6,7,12,0,0,0,0,9,1,2,1,0,0,19,1,0,3,2,1,0,0,0,2,5,173.txt
5,11,3,1,6,6,0,1,3,2,24,2,13,9,14,1,7,4,0,29,0,3,0,2,2,28,21,12,18,0,0,4,1,2,0,3,1,6,5,21,3,9,5,9,3,12,0,0,0,0,0,1,3,0,0,0,19,0,0,24,1,1,0,7,0,4,5,175.txt
5,11,0,1,6,6,0,0,0,0,13,0,2,9,0,1,7,4,1,11,0,13,0,2,1,6,20,8,15,0,1,4,1,2,0,4,1,4,0,25,0,17,5,7,30,12,0,0,0,0,0,0,2,3,0,6,19,0,0,10,0,1,0,12,0,10,5,177.txt
5,11,0,1,6,6,0,0,0,0,0,0,2,9,0,1,7,4,0,11,0,0,0,2,1,6,16,0,0,5,1,4,1,2,0,30,1,0,0,7,1,17,5,11,4,12,0,0,0,0,0,0,2,3,0,6,10,0,0,5,4,1,0,0,0,10,5,179.txt
5,11,0,1,6,6,0,0,0,0,26,0,2,9,0,4,7,4,0,5,0,0,0,2,1,6,3,5,0,6,0,4,1,2,0,4,1,0,0,9,0,17,5,14,4,12,0,0,0,0,0,0,2,3,0,0,1,0,0,5,0,1,0,0,0,4,7,182.txt
5,11,0,1,6,6,0,0,0,0,0,0,2,9,0,1,7,4,0,11,0,0,0,2,1,6,3,0,0,0,0,4,1,2,0,0,1,0,0,14,0,17,4,14,0,12,0,0,0,2,0,0,2,3,0,0,14,0,0,5,0,1,0,0,0,10,5,184.txt
5,11,0,1,6,6,0,1,0,0,0,0,13,9,1,1,7,4,0,4,0,0,0,2,1,13,3,0,12,0,0,4,1,2,0,3,0,6,2,0,2,15,4,14,0,12,0,0,0,0,0,0,2,5,0,0,0,0,0,17,1,1,0,0,0,4,5,188.txt
10,13,0,0,6,5,0,1,5,0,13,0,15,3,0,1,1,3,0,8,0,0,0,0,0,0,17,9,2,9,0,5,0,0,0,3,0,6,5,13,3,3,13,7,7,2,0,0,0,0,3,7,2,1,0,0,19,1,1,3,1,1,0,6,0,4,12,189.txt
5,11,4,1,6,6,0,0,0,16,0,0,2,9,0,1,7,4,0,9,0,1,0,2,1,7,4,0,0,6,0,4,5,2,0,0,0,0,0,23,0,21,5,4,4,12,0,0,0,0,0,0,2,3,0,0,18,0,0,5,4,1,0,3,7,13,5,191.txt
5,12,0,1,6,6,0,3,3,20,13,2,2,9,1,10,7,2,0,16,0,0,0,2,10,28,20,4,15,2,11,4,1,2,0,17,1,11,3,1,1,17,6,5,21,12,3,0,0,0,0,1,4,1,5,4,10,3,0,3,4,1,0,0,0,10,2,194.txt
5,11,3,1,6,6,0,0,0,0,26,2,2,9,11,1,7,4,0,5,0,3,0,2,1,6,3,0,0,6,0,4,1,2,0,0,0,4,0,0,4,17,4,14,0,12,0,0,0,2,0,0,2,3,0,0,17,0,0,5,3,1,0,4,0,4,7,197.txt
5,11,4,1,6,6,0,0,3,13,0,2,2,9,0,1,7,4,0,9,0,0,0,2,2,6,4,0,0,6,0,4,5,2,0,0,1,0,0,24,4,21,5,4,30,12,0,0,0,0,0,0,2,3,0,1,16,0,0,5,4,1,0,14,0,10,5,199.txt
5,13,0,0,6,6,0,0,0,0,26,0,2,1,0,1,3,4,0,5,0,0,0,2,0,0,23,10,0,3,0,5,1,0,0,4,0,0,0,28,4,17,0,14,7,2,0,0,0,1,0,0,2,3,0,0,17,0,0,5,5,1,0,0,0,8,3,203.txt
5,11,0,1,6,6,0,0,3,0,26,2,2,9,16,1,7,4,0,11,0,1,0,2,10,6,3,0,5,6,0,4,1,2,0,0,0,4,0,0,4,17,4,14,0,12,0,0,0,2,0,0,2,3,0,0,17,0,0,5,3,1,0,4,2,17,3,204.txt
7,13,0,0,6,6,0,1,0,13,13,0,15,3,0,1,1,4,0,8,0,0,0,0,0,3,7,8,18,10,0,4,1,2,0,3,0,6,5,11,2,3,5,4,7,7,0,0,0,5,6,1,2,1,0,0,19,1,0,3,1,1,0,5,0,2,4,209.txt
5,13,0,0,6,6,0,1,0,0,13,0,2,1,0,1,19,4,0,11,0,0,0,2,0,6,20,3,12,0,0,4,1,2,0,6,0,0,0,14,0,17,4,7,7,8,0,0,0,0,0,0,2,3,0,0,19,0,0,18,4,1,0,0,0,3,9,210.txt
5,11,0,1,6,6,0,0,0,0,0,0,2,9,0,1,7,4,0,5,0,28,0,2,1,6,3,23,0,0,0,4,1,2,0,4,0,0,0,0,4,17,4,14,0,12,0,0,0,2,0,0,2,3,0,0,0,0,0,5,0,1,0,0,0,18,9,212.txt
10,11,0,1,6,6,0,1,0,16,13,0,13,3,0,1,1,3,0,15,0,0,0,0,1,3,7,13,8,15,1,4,7,2,0,3,1,6,5,13,2,21,5,4,7,12,0,0,0,0,9,1,6,1,0,0,3,1,1,19,2,1,0,15,0,2,6,214.txt
5,12,0,1,6,6,0,0,3,23,29,2,2,9,9,9,5,4,1,11,0,17,0,2,19,9,20,1,22,22,1,4,5,2,2,20,2,4,4,1,1,19,5,5,30,13,0,0,1,0,0,0,5,3,5,9,25,0,0,10,10,1,0,10,0,5,5,217.txt
5,11,0,1,6,6,0,0,0,2,29,0,2,9,0,9,7,4,0,5,0,0,0,2,1,6,20,9,0,0,0,4,1,2,0,6,0,0,0,2,0,22,9,4,3,12,0,0,0,9,0,0,2,3,0,0,18,0,0,5,0,1,0,0,0,4,5,219.txt
5,11,3,1,6,6,0,0,0,0,0,0,2,9,0,1,7,4,0,5,0,28,0,2,1,6,3,0,0,0,0,4,1,2,0,4,0,0,0,0,0,17,4,14,0,12,0,0,0,6,0,0,2,3,0,0,0,0,0,5,0,1,0,0,0,4,5,220.txt
5,11,4,1,6,6,0,0,0,13,0,0,2,9,0,1,7,4,0,9,0,17,0,2,1,6,4,0,0,0,0,4,8,2,0,7,0,15,0,7,0,21,5,3,4,12,0,0,0,0,0,0,2,3,0,0,18,0,0,5,0,1,0,14,0,0,5,222.txt
5,11,3,1,6,6,0,0,0,0,0,2,2,9,0,1,7,4,0,5,0,3,0,2,1,6,3,0,0,0,0,4,1,2,0,0,0,0,0,0,0,17,4,14,0,12,0,0,0,6,0,0,2,3,0,0,0,0,0,5,0,1,0,0,0,4,5,225.txt
5,11,0,1,6,6,0,0,0,0,26,0,2,9,1,1,12,4,0,11,0,0,0,2,1,6,3,0,0,3,0,4,1,2,0,7,0,0,0,0,4,17,4,14,12,12,0,0,0,0,0,0,2,3,0,0,1,0,0,5,0,1,0,6,3,4,7,227.txt
5,11,0,1,6,6,0,0,0,0,0,0,2,9,0,1,7,4,0,11,0,17,0,2,1,6,12,0,0,5,0,4,1,2,0,0,0,0,0,14,0,17,4,9,0,12,0,0,0,0,0,0,2,3,0,0,10,0,0,5,0,1,0,0,0,0,5,229.txt
5,11,0,1,6,6,0,0,0,18,0,0,2,9,0,1,12,4,0,11,0,10,0,2,1,19,20,0,0,12,0,4,1,2,0,7,0,3,0,13,0,17,5,4,11,12,0,0,0,2,0,0,5,3,0,0,18,0,0,5,3,1,0,5,0,0,5,231.txt
5,11,0,1,6,6,0,0,0,0,0,0,2,9,0,1,7,4,0,24,0,0,0,2,1,28,16,0,15,0,1,4,1,2,0,0,1,0,0,1,1,17,4,5,0,12,0,0,0,0,0,1,2,0,5,1,14,0,0,18,4,1,0,0,0,10,5,236.txt
5,11,0,1,6,6,0,1,3,16,26,2,13,9,0,1,12,4,0,19,0,0,0,2,1,13,7,9,6,3,0,4,5,2,0,3,0,6,5,13,3,21,5,4,7,12,0,0,0,2,0,1,3,0,0,0,1,0,0,11,1,1,0,9,0,4,7,241.txt
5,11,0,1,6,6,0,0,0,0,26,0,2,9,0,9,7,4,0,10,0,0,0,2,1,6,16,0,0,6,0,4,1,2,0,0,0,4,0,13,4,21,6,14,0,12,0,0,0,6,0,0,5,3,0,0,28,0,0,5,3,1,0,5,0,4,5,242.txt
5,11,0,1,6,6,0,1,0,0,13,2,2,9,0,1,12,4,0,25,0,0,0,2,1,13,21,9,12,0,0,4,1,2,0,6,1,6,0,12,4,13,5,8,7,12,0,0,0,0,0,0,2,5,0,0,19,0,0,17,4,1,0,8,7,10,5,245.txt
5,11,4,1,6,6,0,1,0,12,0,0,2,9,0,1,7,4,0,18,0,27,0,2,1,23,21,0,18,0,0,4,8,2,0,0,1,6,2,13,0,21,5,4,0,12,0,0,0,0,0,0,2,0,0,0,18,0,0,15,1,1,0,14,0,10,5,247.txt
5,11,4,1,6,6,0,0,0,12,0,0,2,9,0,1,7,4,0,10,0,28,0,2,1,6,4,0,0,0,0,4,8,2,0,7,0,5,0,3,6,21,5,3,4,12,4,0,0,2,0,0,2,3,0,0,18,0,0,5,0,1,0,14,5,17,5,249.txt
11,11,6,1,6,6,0,0,0,2,29,2,9,9,0,1,7,4,0,9,0,1,0,2,1,7,4,0,0,6,0,4,5,2,0,0,0,4,0,13,4,21,8,4,0,12,0,0,2,0,0,4,5,3,0,0,16,0,0,5,0,1,0,10,8,14,7,250.txt
5,11,0,1,6,6,0,0,3,0,26,2,2,9,0,1,7,4,0,11,0,0,0,2,1,6,12,10,0,6,0,4,1,2,0,6,0,4,0,16,4,17,4,7,7,12,0,0,0,0,0,0,2,3,0,0,1,0,0,5,3,1,0,5,0,4,7,252.txt
5,11,0,1,6,6,0,3,0,16,0,0,2,9,0,1,7,4,1,19,0,0,0,2,1,28,20,0,15,0,1,4,1,2,0,7,1,2,0,1,1,17,5,5,4,12,0,0,0,0,0,1,10,1,5,9,19,0,0,10,4,1,0,0,0,10,5,256.txt
5,11,4,1,6,6,0,0,0,0,0,0,2,9,0,1,12,4,0,10,0,0,0,2,1,6,11,0,0,0,0,4,1,2,0,0,0,0,0,0,0,21,4,8,0,12,0,0,0,0,0,0,2,3,0,0,19,0,0,5,0,1,0,0,3,16,5,258.txt
5,11,0,1,6,6,0,0,0,0,0,0,2,9,0,1,7,4,0,5,0,0,0,2,2,6,3,0,0,0,0,4,1,2,0,7,1,0,0,0,4,17,4,14,12,12,0,0,0,0,0,0,2,3,0,0,0,0,0,5,0,1,0,0,0,4,5,260.txt
5,13,0,0,6,6,0,8,0,20,13,0,11,3,0,10,8,4,0,4,0,0,0,2,0,0,29,4,18,0,0,5,1,0,0,3,0,6,5,4,3,6,0,4,4,2,4,0,0,0,0,1,2,0,0,0,19,0,0,8,1,1,0,0,0,0,0,261.txt
5,11,3,1,6,6,0,0,0,0,0,0,2,9,0,1,7,4,0,5,0,3,0,2,1,6,3,0,0,0,0,4,1,2,0,14,0,0,0,0,0,17,4,14,0,12,0,0,0,6,0,0,2,3,0,0,0,0,0,5,0,1,0,0,0,0,5,264.txt
5,11,0,1,6,6,0,0,0,0,0,0,2,9,0,9,7,4,0,5,0,0,0,2,1,6,3,0,0,0,0,4,1,2,0,4,0,0,0,0,4,17,4,14,8,12,0,0,0,2,0,0,2,3,0,0,0,0,0,5,0,1,0,0,0,4,5,269.txt
5,11,0,1,6,6,0,0,0,0,26,0,2,9,1,1,7,4,0,5,0,0,0,2,1,7,3,0,0,6,1,4,1,2,0,0,1,4,0,13,4,17,6,14,0,12,0,0,0,0,0,0,5,3,0,0,1,0,0,5,11,1,0,6,0,10,7,272.txt
5,11,0,1,6,6,0,0,0,0,0,0,2,9,0,1,7,4,0,5,0,9,0,2,1,6,3,0,0,0,0,4,1,2,0,4,1,0,0,0,4,17,4,14,0,12,0,0,0,0,0,0,2,3,0,0,0,0,0,5,0,1,0,0,0,4,5,274.txt
0,16,4,0,0,5,0,1,8,26,27,0,20,12,0,12,21,7,0,2,2,28,1,3,9,18,1,2,20,9,0,1,6,4,0,21,0,6,9,10,3,1,11,4,27,0,6,0,0,5,1,2,7,1,0,0,23,1,1,0,1,0,1,0,3,16,11,276.txt
5,11,0,1,6,6,0,0,0,13,0,0,2,9,0,1,7,4,0,10,0,28,0,2,1,7,4,0,0,0,0,4,5,2,0,7,1,0,0,13,0,17,5,4,10,12,0,0,0,2,0,0,2,3,0,0,22,0,0,5,0,1,0,16,7,16,5,280.txt
5,11,0,1,6,6,0,0,0,0,26,0,2,9,0,1,12,4,0,5,0,11,0,2,1,6,3,0,0,3,0,4,1,2,0,0,0,4,0,0,4,17,4,14,0,12,0,0,0,2,0,0,5,3,0,0,17,0,0,5,0,1,0,12,0,4,7,282.txt
5,13,4,0,6,6,0,0,0,13,13,0,2,1,0,1,19,4,0,11,0,0,0,2,0,9,4,9,5,5,0,4,5,2,0,6,0,0,0,7,4,17,5,4,4,8,0,0,0,0,0,0,5,3,0,0,30,0,0,5,7,1,0,14,0,9,6,283.txt
5,11,4,1,6,6,0,1,0,16,0,0,13,9,0,1,7,4,0,18,0,0,0,2,1,23,7,0,18,0,0,4,5,2,0,3,1,6,5,13,3,21,5,4,0,12,0,0,0,0,0,1,2,2,0,0,18,0,0,24,2,1,0,3,0,10,5,284.txt
5,11,0,1,6,6,0,1,0,13,0,0,13,9,0,1,7,4,0,15,0,0,0,2,1,13,7,0,18,0,0,4,5,2,0,3,0,6,5,13,2,21,5,4,7,12,0,0,0,0,0,1,2,1,0,0,8,0,0,8,1,1,0,2,0,4,5,286.txt
5,11,0,1,6,6,0,1,0,0,13,0,15,9,0,1,7,4,0,29,0,0,0,2,1,13,21,9,12,5,0,4,1,2,0,3,0,6,2,7,3,14,5,9,4,12,0,0,0,5,0,0,2,0,0,0,10,0,0,17,1,1,0,5,0,4,4,288.txt
5,11,0,1,6,6,0,1,0,16,13,0,13,3,0,1,8,2,0,17,0,0,0,2,1,13,7,9,18,0,0,4,1,2,0,3,1,6,5,14,2,21,4,4,7,12,3,0,0,0,0,1,4,1,0,0,3,0,0,4,1,1,0,3,0,10,5,290.txt
5,5,4,0,6,6,0,0,0,13,26,0,2,1,0,8,19,4,0,9,0,0,0,2,0,6,4,13,0,3,0,4,5,2,0,6,0,0,0,2,4,21,9,4,3,8,0,0,0,0,0,0,2,3,0,0,16,0,0,5,0,1,0,14,0,4,5,293.txt
7,13,0,0,6,6,0,1,0,18,13,0,15,3,0,1,1,4,0,15,0,1,0,0,0,0,7,9,18,18,0,5,1,2,0,3,0,6,5,13,3,3,0,4,7,5,0,0,0,5,4,1,2,1,0,0,24,1,0,3,1,1,0,6,7,13,4,295.txt
5,12,4,1,6,6,0,0,0,15,26,0,8,30,1,1,7,4,0,3,0,18,0,2,4,22,4,12,5,2,16,4,5,2,0,20,1,0,11,1,1,17,5,5,2,12,0,5,0,0,0,9,2,4,5,1,1,3,2,5,11,1,0,6,8,10,2,297.txt
5,11,0,1,6,6,0,1,0,13,26,0,13,3,0,1,8,4,0,15,0,0,0,2,1,13,7,13,7,3,0,4,1,2,0,3,0,6,5,13,3,24,5,4,7,12,0,0,0,0,8,1,2,1,0,0,1,0,0,7,1,1,0,0,0,0,5,300.txt
5,11,0,1,6,6,0,0,0,0,0,0,2,9,0,1,7,4,0,5,0,0,0,2,1,6,3,0,0,0,0,4,1,2,0,0,0,0,0,0,0,17,4,14,0,12,0,0,0,0,0,0,2,3,0,0,0,0,0,5,0,1,0,0,2,16,6,303.txt
5,11,0,1,6,6,0,1,0,0,0,0,15,3,0,1,13,4,0,17,0,0,0,0,1,3,7,0,18,0,0,4,1,2,0,3,1,2,5,14,2,5,4,18,7,12,0,0,0,0,9,1,2,1,0,6,14,1,0,3,2,1,0,6,0,2,5,305.txt
5,11,4,1,6,6,0,8,0,7,13,0,2,9,0,10,7,4,0,18,0,0,0,2,1,2,4,5,14,5,1,4,5,2,0,6,1,2,0,2,1,21,9,4,3,12,0,0,0,0,0,1,2,1,0,3,15,0,0,15,4,1,0,14,0,10,5,307.txt
5,11,0,1,6,6,0,1,0,25,0,2,2,9,0,1,7,4,0,20,0,0,0,2,1,27,4,0,18,0,0,4,1,2,0,7,1,6,2,2,0,12,9,6,3,12,0,0,0,0,0,0,2,0,0,0,12,0,0,16,1,1,0,2,0,4,5,311.txt
5,11,0,1,6,6,0,8,0,20,13,0,2,9,0,10,7,4,0,29,0,0,0,2,1,28,20,5,0,0,0,4,1,2,0,4,1,6,0,14,1,12,6,15,7,12,0,0,0,0,0,1,10,0,0,4,19,0,0,16,4,1,0,0,0,10,5,313.txt
5,11,3,1,6,6,0,0,3,18,26,2,2,9,1,10,7,4,0,11,0,3,0,2,6,19,20,5,0,6,0,4,5,2,0,4,0,4,0,14,4,17,8,4,7,12,0,0,0,2,0,0,2,3,0,0,20,0,0,5,0,1,0,4,0,4,7,318.txt
5,11,3,1,6,6,0,0,0,0,26,0,2,9,0,1,7,4,0,5,0,28,0,2,1,6,3,18,0,6,0,4,1,2,0,4,0,0,0,0,0,17,4,14,7,12,0,0,0,6,0,0,2,3,0,0,28,0,0,5,0,1,0,0,0,4,7,320.txt
9,20,3,1,6,6,0,3,0,13,0,2,2,9,0,1,7,4,0,8,0,3,0,2,4,29,4,0,14,2,7,4,5,2,0,11,1,2,3,1,1,8,8,5,21,12,0,0,0,1,0,1,0,4,3,1,18,0,0,9,4,1,0,8,3,10,2,322.txt
9,20,3,1,6,6,0,3,0,13,0,2,2,9,0,1,7,4,0,8,0,3,0,2,4,29,4,0,14,2,7,4,5,2,0,11,1,2,3,1,1,8,8,5,21,12,0,0,0,1,0,1,0,4,3,1,18,0,0,9,4,1,0,8,3,10,2,323.txt
5,11,0,1,6,6,0,0,0,0,13,0,2,9,0,1,7,4,0,11,0,9,0,2,1,11,20,27,0,6,0,4,1,2,0,4,1,0,0,13,1,17,5,10,7,12,0,0,0,0,0,0,5,3,0,6,6,0,0,5,0,1,0,0,0,10,5,324.txt
15,13,4,0,6,6,0,1,3,13,26,0,16,3,0,1,1,4,0,7,0,17,0,0,0,4,7,9,6,8,0,4,5,2,0,3,0,6,5,8,3,3,8,4,4,7,0,0,0,2,6,1,2,1,0,0,17,1,0,3,1,1,0,14,6,17,7,326.txt
0,11,0,1,6,9,0,8,5,30,27,0,19,13,0,0,21,11,0,8,0,0,1,3,1,15,26,21,20,15,0,4,0,1,0,23,0,6,1,25,3,0,5,4,22,12,4,0,0,5,1,7,7,1,0,0,1,1,1,2,1,0,0,14,3,4,1,328.txt
5,11,0,1,6,6,0,0,0,2,29,0,2,9,0,1,7,4,0,5,0,30,0,2,1,6,3,0,0,6,0,4,1,2,0,0,0,3,0,7,0,17,5,14,4,12,0,0,0,0,0,0,5,3,0,0,1,0,0,5,3,1,0,5,0,4,7,329.txt
5,11,0,1,6,6,0,0,0,0,0,0,2,9,0,1,7,4,0,10,0,0,0,2,1,6,16,0,0,6,0,4,1,2,0,0,0,3,0,0,0,17,4,14,0,12,0,0,0,0,0,0,5,3,0,0,1,0,0,5,3,1,0,5,0,0,5,333.txt
5,11,4,1,6,6,0,0,0,19,0,0,2,9,0,1,7,4,0,9,0,17,0,2,1,6,20,0,0,5,0,4,1,2,0,0,1,4,0,21,0,21,5,4,3,12,0,0,0,0,0,0,2,3,0,0,18,0,0,5,10,1,0,15,0,10,5,335.txt
5,11,0,1,6,6,0,0,0,0,13,0,2,9,0,1,7,4,0,11,0,29,0,2,1,6,20,26,0,0,0,4,1,2,0,4,0,0,0,14,0,17,6,7,7,12,0,0,0,0,0,0,2,3,0,0,19,0,0,5,0,1,0,0,0,0,5,337.txt
9,11,4,1,1,6,0,0,0,2,30,0,2,9,0,1,12,4,0,9,0,27,0,2,1,2,4,9,0,3,0,4,9,2,0,6,0,4,0,21,0,21,8,2,3,12,0,0,0,0,0,0,5,3,0,0,16,0,0,5,3,1,0,14,4,13,7,341.txt
10,11,0,1,6,9,0,1,5,13,14,2,15,3,0,1,1,3,0,7,0,21,0,3,1,29,17,9,2,15,0,4,7,2,0,5,1,2,1,10,3,21,8,4,4,12,4,0,0,0,9,7,1,6,0,0,18,1,1,3,2,1,0,14,7,2,4,342.txt
5,11,4,1,6,6,0,1,0,0,0,2,2,9,1,1,7,4,0,10,0,0,0,2,1,6,28,0,0,6,0,4,1,2,0,0,0,0,0,0,4,21,4,14,0,12,0,0,0,0,0,0,2,3,0,0,4,0,0,18,4,1,0,6,0,4,5,344.txt
5,11,0,1,6,6,0,1,0,0,0,0,15,9,0,1,12,4,0,4,0,0,0,2,1,13,7,0,4,5,0,4,1,2,0,3,0,6,2,0,3,10,4,14,0,12,0,0,0,0,0,0,2,0,0,0,7,0,0,25,1,1,0,0,3,16,6,347.txt
5,11,0,1,6,6,0,1,0,0,13,0,15,9,0,1,22,4,0,27,0,0,0,2,1,13,7,14,8,5,0,4,1,2,0,3,0,6,5,13,3,6,6,4,7,12,0,0,0,5,0,1,3,0,0,0,23,0,0,11,1,1,0,5,3,16,4,349.txt
0,13,0,0,9,9,0,1,8,1,27,0,20,13,0,0,21,9,0,15,2,0,1,3,0,18,2,20,20,1,0,0,7,4,0,21,0,6,9,13,10,0,11,7,22,0,1,0,0,0,1,2,7,1,0,0,19,1,1,0,1,0,1,5,0,11,11,352.txt
10,13,0,0,6,9,0,1,3,0,14,0,15,3,0,1,1,3,0,0,0,0,0,3,0,0,17,0,2,1,0,5,0,0,0,3,0,6,5,0,2,3,13,14,12,2,0,0,0,5,3,2,1,1,0,0,0,1,1,3,1,1,0,0,0,4,4,354.txt
5,11,3,1,6,6,0,0,0,0,0,0,2,9,0,1,7,4,0,10,0,3,0,2,1,6,20,0,0,0,0,4,1,2,0,7,0,0,0,14,0,17,4,4,7,12,0,0,0,2,0,0,2,3,0,0,18,0,0,5,0,1,0,0,0,0,5,358.txt
5,11,0,1,6,6,0,0,0,0,26,0,2,9,0,9,7,4,0,11,0,0,0,2,1,19,20,0,0,6,0,4,1,2,0,7,0,4,0,3,0,22,5,18,4,12,0,0,0,2,0,0,2,3,0,0,1,0,0,5,3,1,0,5,0,0,7,360.txt
5,11,0,1,6,6,0,1,0,19,13,0,15,3,0,1,13,4,0,8,0,0,0,2,1,13,7,9,18,0,0,4,1,2,0,3,0,6,5,13,3,5,5,4,7,12,0,0,0,5,9,1,2,1,0,0,30,1,0,4,1,1,0,6,3,9,4,362.txt
5,13,0,0,6,6,0,1,0,16,26,0,13,1,0,1,19,4,0,24,0,0,0,2,0,11,21,13,24,3,0,4,1,2,0,3,0,6,2,25,3,17,5,4,30,8,0,0,0,0,0,0,2,5,0,0,1,0,0,18,1,1,0,5,0,4,7,364.txt
5,11,0,1,6,6,0,0,0,17,13,0,2,9,0,1,12,4,0,11,0,10,0,2,1,6,20,16,0,0,0,4,1,2,0,4,0,0,0,21,0,17,5,4,20,12,0,0,0,0,0,0,2,3,0,0,19,0,0,5,0,1,0,0,0,0,5,365.txt
9,11,3,1,6,6,0,0,3,13,0,2,2,9,9,1,7,4,0,11,0,28,0,2,2,7,4,0,5,0,0,4,5,2,0,7,0,4,0,3,4,17,8,4,4,12,0,0,0,2,0,0,5,3,0,0,12,0,0,5,3,1,0,10,0,10,5,368.txt
5,11,0,1,6,6,0,1,0,0,0,2,15,9,0,1,7,4,0,29,0,0,0,2,1,13,7,0,18,0,0,4,1,2,0,3,1,6,5,14,2,25,4,18,16,12,0,0,0,2,0,1,2,0,0,0,0,0,0,13,1,1,0,6,0,10,5,369.txt
5,11,0,1,6,6,0,0,0,0,13,0,2,9,0,10,7,4,0,5,0,28,0,2,1,6,3,5,0,4,0,4,1,2,0,4,0,0,0,14,0,17,4,11,7,12,0,0,0,3,0,0,2,3,0,0,7,0,0,5,0,1,0,0,0,0,5,371.txt
11,12,6,1,6,6,0,3,0,2,30,0,2,9,0,1,7,4,0,8,0,17,0,2,10,3,4,0,5,2,0,4,1,2,0,17,1,11,11,1,9,26,8,5,29,12,0,3,0,7,0,13,0,1,5,1,16,3,0,3,11,1,0,13,7,10,2,375.txt
10,11,4,1,6,9,0,1,5,16,14,0,15,3,0,1,1,3,0,8,0,0,0,3,1,3,17,0,2,15,0,4,0,2,0,3,0,6,1,13,3,21,5,4,9,12,0,0,0,0,8,2,1,1,0,0,18,1,1,3,1,1,0,6,0,0,4,377.txt
5,11,0,1,6,6,0,1,0,0,13,0,13,3,0,1,1,4,0,0,0,0,0,0,1,13,7,9,18,15,0,4,1,2,0,3,0,6,5,0,2,3,4,14,7,12,0,0,0,0,8,1,2,1,0,0,0,1,0,3,1,1,0,0,0,2,5,380.txt
11,12,0,1,6,6,0,0,3,0,13,4,2,9,1,9,17,4,1,16,0,18,0,2,10,3,20,1,23,2,8,4,1,2,0,20,5,0,13,1,9,19,8,5,21,16,0,0,1,0,0,1,2,1,5,6,19,0,0,19,4,1,0,0,7,5,2,382.txt
5,11,0,1,6,6,0,0,0,16,0,0,2,9,0,1,7,4,0,11,0,29,0,2,1,11,4,0,0,5,1,4,1,2,0,0,1,0,0,1,1,17,9,5,3,12,0,0,0,0,0,0,2,3,5,6,24,0,0,18,4,1,0,0,0,10,5,385.txt
5,12,0,1,6,6,0,3,0,16,26,0,2,9,0,0,7,11,0,15,0,0,0,2,4,29,22,9,0,2,0,4,1,2,0,2,1,2,3,1,1,8,5,5,29,12,0,0,0,7,0,1,0,1,6,1,1,0,0,2,9,0,0,0,7,10,2,386.txt
5,5,0,1,6,6,0,0,3,20,13,2,2,1,0,10,19,4,0,5,0,13,0,2,0,10,8,4,5,3,0,4,1,2,0,8,0,0,0,13,4,17,5,8,6,10,0,0,0,1,0,0,2,3,0,0,29,0,0,5,15,1,0,4,0,4,5,387.txt
5,11,4,1,6,6,0,1,0,18,0,0,13,3,7,1,22,4,0,15,0,0,0,2,2,13,7,0,8,0,0,4,1,2,0,3,0,6,5,13,2,21,5,4,12,12,0,0,0,0,0,1,3,1,0,0,19,0,0,7,1,1,0,5,0,10,4,391.txt
5,13,4,1,6,6,0,0,0,17,26,0,2,1,0,1,20,4,0,10,0,0,0,2,1,6,20,0,0,3,0,4,5,2,0,6,0,3,0,13,0,17,6,4,7,12,0,0,0,0,0,0,5,3,0,0,21,0,0,5,3,1,0,15,3,16,4,394.txt
5,13,4,0,6,6,0,1,0,11,13,0,16,3,0,1,16,4,0,7,0,0,0,0,0,0,7,9,18,10,0,5,8,0,0,3,0,6,5,4,2,21,0,3,4,3,0,0,0,0,4,1,2,2,0,0,3,1,0,4,1,1,0,16,5,0,12,395.txt
5,13,0,0,6,6,0,0,0,0,13,0,2,1,0,1,14,4,0,11,0,14,0,2,0,0,9,0,0,0,0,5,1,2,0,7,0,0,0,13,0,17,0,15,7,5,0,0,0,0,0,0,2,3,0,0,19,0,0,5,0,1,0,0,0,0,5,397.txt
5,11,0,1,6,6,0,0,0,0,0,0,2,9,0,1,7,4,0,24,0,28,0,2,1,28,20,0,0,0,1,4,1,2,0,7,1,4,0,1,1,17,5,5,4,12,0,0,0,0,0,0,2,7,5,6,19,0,0,18,11,1,0,6,0,10,5,400.txt
5,11,5,1,7,6,4,0,0,14,0,0,2,9,0,1,7,4,0,18,0,27,0,2,2,28,4,0,0,5,0,4,8,2,0,0,1,3,0,1,1,21,6,5,0,12,0,0,0,0,0,0,2,0,5,1,18,0,0,18,10,1,0,5,0,10,6,402.txt
5,11,0,1,6,6,0,1,0,0,26,0,13,9,0,1,7,4,0,16,0,0,0,2,1,23,7,0,6,6,0,4,1,2,0,3,1,6,5,14,3,7,6,7,7,12,0,0,0,0,0,1,2,1,0,0,1,0,0,11,1,1,0,0,0,10,7,405.txt
5,11,4,1,6,6,0,0,0,2,28,0,2,9,0,1,7,4,0,10,0,17,0,2,1,7,20,0,0,6,1,4,1,2,0,4,1,4,0,13,0,21,5,9,0,12,0,0,0,0,0,0,5,3,0,0,1,0,0,5,0,1,0,6,0,10,3,407.txt
5,12,4,1,6,6,0,1,0,13,0,0,15,9,0,1,7,4,0,15,0,0,0,2,1,29,7,0,4,0,1,4,5,2,0,3,1,2,5,1,13,21,5,5,0,12,0,0,0,0,0,1,0,2,5,6,3,0,0,3,2,1,0,16,3,10,4,411.txt
5,11,0,1,6,6,0,1,0,0,26,0,15,3,0,1,13,4,0,0,0,1,0,0,1,13,7,13,7,6,0,4,1,2,0,3,0,6,5,0,3,4,4,14,7,12,0,0,0,5,9,1,2,1,0,0,20,1,0,3,1,1,0,5,2,15,7,413.txt
5,11,0,1,6,6,0,1,0,0,13,0,16,3,0,1,8,4,0,15,0,0,0,2,1,13,7,9,18,5,0,4,1,2,0,3,0,6,5,13,3,6,5,7,7,12,0,0,0,0,0,1,3,1,0,0,10,0,0,22,1,1,0,0,0,0,5,416.txt
5,12,4,1,6,6,0,9,3,18,26,0,2,9,0,1,7,4,0,8,0,0,0,2,1,28,20,8,5,6,0,4,5,2,0,4,1,2,0,1,1,21,5,5,7,12,0,7,0,0,0,8,10,1,5,6,1,0,0,20,10,1,0,5,0,10,3,417.txt
5,5,3,0,6,6,0,0,3,0,13,2,2,1,1,8,10,4,0,11,0,3,0,2,0,0,20,16,0,3,0,5,1,2,0,6,0,0,0,14,4,22,14,7,7,5,0,0,0,2,0,0,2,3,0,0,5,0,0,5,0,1,0,4,7,17,5,419.txt
5,11,0,1,6,6,0,0,0,0,26,0,2,9,0,1,7,4,0,5,0,17,0,2,1,6,11,9,0,6,0,4,1,2,0,4,1,3,0,21,1,17,9,9,3,12,0,0,0,2,0,0,2,3,0,4,17,0,0,5,10,1,0,5,0,10,7,421.txt
5,11,0,1,6,6,0,0,0,0,0,0,2,9,0,1,7,4,0,5,0,10,0,2,1,6,3,0,0,5,0,4,1,2,0,7,1,4,0,3,4,17,5,14,4,12,0,0,0,4,0,0,2,3,0,0,9,0,0,5,0,1,0,6,0,4,5,423.txt
7,11,0,1,6,6,0,1,0,19,0,0,13,3,0,1,1,4,0,16,0,0,0,0,1,29,17,0,2,15,0,4,7,2,0,3,1,2,5,14,2,3,6,4,0,12,0,0,0,0,9,1,6,1,0,4,8,1,1,3,2,1,0,0,3,2,4,425.txt
5,11,3,1,6,6,0,0,0,0,0,0,2,9,0,1,7,4,0,11,0,28,0,2,1,6,28,0,0,6,0,4,1,2,0,0,0,0,0,0,0,17,4,14,0,12,0,0,0,6,0,0,2,3,0,0,28,0,0,5,0,1,0,0,0,0,5,427.txt
5,11,0,1,6,6,0,0,0,0,13,0,2,9,0,9,7,4,0,5,0,30,0,2,1,6,3,9,0,6,0,4,1,2,0,4,0,0,0,13,0,17,5,14,7,12,0,0,0,2,0,0,2,3,0,0,5,0,0,5,0,1,0,6,0,0,5,430.txt
5,11,0,1,6,6,0,1,0,0,0,0,13,9,0,1,7,4,0,7,0,0,0,2,1,23,7,0,18,0,0,4,1,2,0,3,1,6,5,7,2,6,1,13,4,12,0,0,0,0,0,1,2,1,0,0,14,0,0,4,1,1,0,6,0,0,5,434.txt
5,11,0,1,6,6,0,0,3,13,13,2,2,9,1,1,7,4,0,11,0,10,0,2,6,6,4,26,5,0,1,4,1,2,0,4,1,0,0,4,4,17,5,4,4,12,0,0,0,0,0,0,2,3,0,4,22,0,0,5,0,1,0,2,3,10,5,436.txt
5,11,4,1,6,6,0,0,0,13,0,0,2,9,0,1,7,4,0,9,0,10,0,2,1,6,4,0,0,0,0,4,5,2,0,0,0,0,0,13,0,21,5,4,0,12,0,0,0,0,0,0,5,3,0,0,18,0,0,5,0,1,0,14,0,0,5,439.txt
5,11,3,1,6,6,0,0,0,13,13,0,2,9,0,1,12,4,0,11,0,3,0,2,1,7,4,12,0,3,0,4,8,2,0,6,0,4,0,9,4,17,5,3,4,12,0,0,0,2,0,0,2,3,0,0,18,0,0,5,3,1,0,14,3,4,5,444.txt
5,11,4,1,6,6,0,1,0,11,13,0,2,9,0,1,7,4,0,18,0,0,0,2,1,2,4,14,18,0,0,4,8,2,0,6,1,6,5,9,4,21,5,4,4,12,0,0,0,0,0,1,2,0,0,0,22,0,0,16,2,1,0,16,0,10,5,447.txt
5,11,3,1,6,6,0,0,3,2,29,0,2,9,0,14,12,4,0,10,0,3,0,2,20,30,4,12,0,3,0,4,8,2,0,6,0,4,0,4,6,22,5,3,4,12,5,0,0,7,0,0,2,3,0,0,18,0,0,5,5,1,0,14,0,8,5,449.txt
5,11,3,1,6,6,0,0,3,0,0,2,2,9,8,1,7,4,0,5,0,3,0,2,1,6,3,0,5,0,0,4,1,2,0,4,1,3,0,0,4,17,4,14,12,12,0,0,0,0,0,0,5,3,0,0,0,0,0,5,3,1,0,10,0,8,5,452.txt
9,13,0,1,6,6,0,1,0,16,13,0,16,3,0,1,1,4,0,6,0,21,0,0,0,13,7,8,8,15,0,4,5,2,0,3,0,6,5,21,3,4,1,4,4,11,4,0,0,0,8,1,3,1,0,0,30,1,0,3,1,1,0,5,5,17,5,454.txt
5,11,4,1,6,6,0,1,0,13,0,0,13,3,0,1,13,4,0,8,0,0,0,2,1,23,7,0,18,0,0,4,5,2,0,3,1,6,5,25,3,21,5,4,5,12,4,0,0,0,9,1,3,2,0,0,18,1,0,3,1,1,0,14,3,0,6,456.txt
5,11,0,1,6,6,0,1,0,0,13,0,13,9,0,1,22,4,0,4,0,0,0,2,1,13,21,14,12,5,0,4,1,2,0,3,0,6,2,0,3,12,4,14,7,12,0,0,0,0,0,0,2,0,0,0,7,0,0,15,1,1,0,0,0,0,5,458.txt
5,11,0,1,6,6,0,0,0,0,0,0,2,9,1,1,7,4,6,24,0,0,0,2,1,28,3,0,14,0,1,4,1,2,0,0,1,0,0,14,0,17,15,14,0,12,0,0,0,0,0,0,2,0,0,0,0,0,0,10,4,1,0,0,0,10,5,460.txt
5,11,0,1,6,6,0,0,0,17,13,2,2,9,0,1,7,4,0,26,0,0,0,2,10,6,20,0,5,0,0,4,1,2,0,6,1,0,0,13,4,17,5,4,7,12,0,0,0,0,0,0,2,5,0,0,3,0,0,18,4,1,0,4,0,4,8,463.txt
5,13,0,0,6,6,0,1,0,16,26,0,15,3,0,1,8,4,0,15,0,0,0,2,0,13,7,0,7,3,0,4,1,2,0,3,0,6,5,13,3,24,5,4,8,8,0,0,0,0,0,1,3,0,0,0,1,0,0,7,1,1,0,0,0,0,4,465.txt
5,11,4,1,6,6,0,1,0,18,0,0,2,9,0,1,7,4,0,18,0,0,0,2,1,5,20,0,0,0,0,4,1,2,0,0,1,6,0,21,0,21,9,9,3,12,0,0,0,0,0,0,2,7,0,0,30,0,0,18,4,1,0,3,0,1,5,469.txt
9,12,0,1,6,6,0,0,0,2,28,0,2,9,0,1,7,4,1,7,0,17,0,2,1,28,4,0,16,6,4,4,5,2,0,20,1,0,3,1,1,21,1,5,21,12,0,0,0,0,0,1,2,1,5,9,16,0,0,19,4,1,0,14,5,10,5,472.txt
5,11,0,1,6,6,0,1,0,0,0,2,15,9,0,1,22,4,0,24,0,0,0,2,1,13,7,0,18,0,0,4,1,2,0,3,0,6,5,2,3,6,9,17,3,12,0,0,0,5,0,1,2,0,0,0,19,0,0,12,1,1,0,0,4,7,4,473.txt
5,11,0,1,6,6,0,0,0,13,13,0,2,9,0,1,7,4,0,10,0,15,0,2,1,6,4,9,0,5,0,4,5,2,0,6,0,0,0,21,0,21,9,4,3,12,4,0,0,3,0,0,2,3,0,0,18,0,0,5,0,1,0,14,0,0,5,475.txt
5,11,0,1,6,6,0,1,0,0,0,0,2,9,0,1,7,4,6,18,0,0,0,2,1,28,21,3,18,0,1,4,1,2,0,0,1,2,0,13,0,21,5,11,0,12,0,0,0,0,0,1,2,1,0,0,19,0,0,10,4,1,0,0,0,1,9,477.txt
5,11,0,1,6,6,0,1,0,0,0,0,13,9,0,1,7,4,0,4,0,0,0,2,1,13,7,0,18,0,0,4,1,2,0,3,1,6,5,25,3,25,5,14,5,12,0,0,0,0,0,1,2,0,0,0,0,0,0,13,1,1,0,6,0,10,5,479.txt
5,11,0,1,6,6,0,1,0,0,0,0,15,3,0,1,13,4,0,0,0,0,0,2,1,14,7,0,4,0,0,4,1,2,0,3,0,6,5,0,3,5,4,14,0,12,0,0,0,0,9,1,3,1,0,0,0,1,0,3,1,1,0,6,3,4,5,481.txt
5,11,0,1,6,6,0,1,0,0,0,0,2,9,0,1,22,4,0,24,0,10,0,2,1,13,21,0,4,5,0,4,1,2,0,3,0,6,5,14,4,12,4,11,0,12,0,0,0,2,0,0,2,0,0,0,9,0,0,25,1,1,0,12,0,1,5,485.txt
5,11,0,1,6,6,0,0,0,0,0,0,2,9,0,1,7,4,0,5,0,10,0,2,1,6,3,0,0,0,0,4,1,2,0,0,1,3,0,0,0,17,4,14,0,12,0,0,0,0,0,0,2,3,0,0,0,0,0,5,10,1,0,5,2,10,5,487.txt
5,11,6,1,6,6,0,1,0,16,0,0,2,9,0,1,22,4,0,30,0,0,0,2,1,6,20,0,0,0,0,4,5,2,0,0,0,4,0,13,4,21,5,4,0,12,0,0,0,0,0,0,2,3,0,0,18,0,0,18,14,1,0,3,0,0,5,488.txt
5,11,0,1,6,6,0,0,0,0,0,0,2,9,0,1,12,4,0,5,0,0,0,2,1,6,3,0,0,0,0,4,1,2,0,7,0,0,0,15,4,17,4,11,7,12,0,0,0,0,0,0,2,3,0,0,0,0,0,5,0,1,0,0,0,4,5,491.txt
5,11,0,1,6,6,0,0,0,0,0,0,2,9,0,1,7,4,0,11,0,0,0,2,1,6,20,0,0,6,0,4,1,2,0,4,0,0,0,14,0,17,4,10,9,12,0,0,0,0,0,0,2,3,0,0,5,0,0,5,0,1,0,0,0,0,5,492.txt
5,11,4,1,6,6,0,0,0,0,26,0,2,9,0,1,7,4,0,9,0,0,0,2,1,6,20,0,0,6,0,4,1,2,0,0,0,0,0,13,0,21,5,4,0,12,0,0,0,0,0,0,2,3,0,0,16,0,0,18,4,1,0,3,0,0,7,494.txt
0,4,3,0,3,9,0,1,8,30,27,0,20,13,0,12,21,8,0,8,6,27,1,3,0,2,30,2,20,25,0,0,7,1,0,21,1,2,9,11,3,1,3,3,27,0,1,0,0,0,1,7,7,6,0,0,18,1,1,0,8,0,1,14,0,11,11,496.txt
5,11,3,1,6,6,0,0,0,0,26,0,2,9,0,1,7,4,0,5,0,28,0,2,1,11,3,0,0,6,0,4,1,2,0,0,0,0,0,21,0,17,9,14,3,12,0,0,0,2,0,0,2,3,0,0,17,0,0,5,0,1,0,0,0,0,3,498.txt
5,11,0,1,6,6,0,1,0,0,13,0,2,9,0,1,7,4,0,28,0,28,0,2,1,13,21,9,9,6,0,4,1,2,0,4,0,6,0,14,0,13,6,7,7,12,0,0,0,2,0,0,2,5,0,0,1,0,0,17,4,1,0,0,0,0,5,500.txt
0,11,4,1,6,5,0,1,5,30,27,0,20,13,0,0,21,9,0,8,3,10,1,3,1,29,26,2,20,19,0,4,7,1,0,21,1,6,10,25,3,27,5,4,28,0,0,0,0,5,1,2,12,1,0,0,13,1,1,0,8,0,0,14,1,11,11,502.txt
10,11,0,1,6,6,0,1,0,0,0,0,13,3,0,1,1,3,0,17,0,0,0,0,1,29,17,0,2,15,1,4,7,2,0,3,1,2,5,27,3,3,4,18,0,12,0,0,0,0,9,1,6,1,0,1,11,1,1,19,2,1,0,12,7,2,5,503.txt
5,11,0,1,6,6,0,1,0,16,13,0,2,9,0,1,7,4,0,15,0,1,0,2,1,28,20,11,18,0,0,4,1,2,0,6,1,6,0,13,4,30,8,4,7,12,0,0,0,0,0,1,10,1,0,4,19,0,0,24,4,1,0,0,7,10,5,505.txt
5,11,0,1,6,6,0,1,0,0,0,0,2,9,0,1,7,4,0,4,0,0,0,2,1,5,3,0,0,0,1,4,1,2,0,0,1,2,0,3,0,17,5,14,4,12,0,0,0,0,0,0,2,7,0,0,0,0,0,18,4,1,0,0,0,10,6,507.txt
5,11,4,1,6,6,0,1,3,16,13,2,16,9,0,1,7,4,0,7,0,0,0,2,1,28,21,9,18,5,0,4,5,2,0,3,1,6,5,9,3,9,5,4,4,12,0,0,0,0,0,1,2,2,0,0,18,0,0,4,2,1,0,7,0,4,5,510.txt
5,11,0,1,6,6,0,8,0,2,24,0,16,9,0,10,7,4,0,6,0,17,0,2,1,28,21,6,18,5,0,4,1,2,0,3,1,6,5,21,3,30,5,8,3,12,0,0,0,0,0,1,10,1,0,0,23,0,0,11,2,1,0,5,0,1,5,513.txt
5,11,3,1,6,6,0,0,0,0,0,0,2,9,0,1,7,4,0,5,0,28,0,2,1,6,3,0,0,6,0,4,1,2,0,4,0,4,0,0,0,17,4,14,9,12,0,0,0,2,0,0,2,3,0,0,29,0,0,5,0,1,0,6,0,0,5,516.txt
11,11,0,1,6,6,0,1,0,13,13,0,16,3,0,1,13,4,0,8,0,1,0,2,1,13,7,7,8,7,0,4,5,2,0,3,0,6,5,13,2,5,1,4,7,12,4,0,0,0,8,1,2,2,0,0,3,1,0,4,1,1,0,16,7,13,4,518.txt
5,12,4,1,6,6,0,0,3,11,26,2,2,9,22,9,7,4,0,10,0,0,0,2,1,30,4,9,5,6,0,4,5,2,0,20,2,4,0,1,1,21,8,5,4,13,4,5,0,7,0,0,5,3,5,4,21,0,4,5,10,1,0,10,0,10,3,521.txt
5,12,0,1,6,6,0,0,0,0,26,0,2,9,0,10,7,4,0,29,0,0,0,2,1,28,3,5,0,6,0,4,1,2,0,20,1,12,0,1,1,17,9,5,3,12,0,6,0,0,0,9,8,1,5,1,1,0,4,18,13,1,0,11,0,10,3,524.txt
0,16,3,1,13,9,0,1,14,30,1,0,20,12,0,12,21,0,5,1,1,3,1,4,1,17,1,20,20,25,2,1,6,1,0,25,1,2,9,0,3,0,2,14,22,0,6,0,0,5,1,2,7,1,0,7,10,1,1,1,8,0,1,0,0,11,11,527.txt
5,11,3,1,6,6,0,0,0,0,0,0,2,9,0,1,7,4,0,5,0,3,0,2,1,6,3,0,0,6,0,4,1,2,0,4,0,4,0,0,0,17,4,14,8,12,0,0,0,0,0,0,2,3,0,0,2,0,0,5,0,1,0,6,0,0,5,529.txt
10,11,0,1,6,5,0,1,5,16,14,0,13,3,0,0,1,3,0,16,0,0,0,3,1,29,17,0,2,15,0,4,7,2,0,5,1,6,5,13,3,2,6,7,9,12,0,0,0,0,9,12,1,1,0,0,5,1,1,3,2,0,0,12,7,2,5,530.txt
5,11,0,1,6,6,0,1,0,0,0,0,13,9,0,1,7,4,6,17,0,0,0,2,1,23,7,0,8,5,1,4,1,2,0,3,1,2,5,14,3,6,4,10,0,12,0,0,0,0,0,1,2,1,0,0,10,0,0,19,2,1,0,5,7,10,6,532.txt
5,11,4,1,6,6,0,1,0,0,0,0,15,9,0,1,7,4,0,0,0,0,0,2,1,23,7,0,18,0,0,4,1,2,0,3,0,6,5,0,3,21,4,7,0,12,0,0,0,0,0,1,2,0,0,0,22,0,0,11,1,1,0,3,7,16,4,534.txt
5,11,0,1,6,6,0,0,0,0,0,0,2,9,0,1,7,4,0,5,0,1,0,2,1,7,3,0,0,5,1,4,1,2,0,4,1,4,0,0,0,17,4,14,0,12,0,0,0,0,0,0,5,3,0,0,9,0,0,5,0,1,0,6,2,10,5,536.txt
5,11,0,1,6,6,0,0,0,0,13,0,2,9,0,1,7,4,0,5,0,0,0,2,1,6,3,9,0,0,0,4,1,2,0,4,1,8,0,0,0,17,4,13,7,12,0,0,0,0,0,0,2,3,0,0,14,0,0,5,0,1,0,6,0,10,5,538.txt
5,13,0,0,6,6,0,1,0,0,13,0,11,3,0,1,13,4,0,0,0,1,0,2,0,0,7,9,8,0,0,5,1,0,0,3,0,6,5,0,3,5,0,14,7,2,0,0,0,0,3,1,2,1,0,0,0,1,0,7,1,1,0,5,2,17,4,541.txt
5,11,0,1,6,6,0,0,0,0,0,0,2,9,0,1,12,4,0,5,0,0,0,2,1,6,3,0,0,0,0,4,1,2,0,4,0,4,0,0,0,17,4,14,19,12,0,0,0,0,0,0,5,3,0,0,0,0,0,5,3,1,0,5,0,4,5,543.txt
5,11,4,1,6,6,0,0,0,0,0,0,2,9,0,1,12,4,0,10,0,17,0,2,1,6,20,0,0,0,0,4,1,2,0,0,0,4,0,14,0,21,6,4,0,12,0,0,0,0,0,0,2,3,0,0,18,0,0,5,0,1,0,5,0,0,6,545.txt
5,11,0,1,6,6,0,0,0,13,13,0,2,9,0,1,7,4,0,10,0,27,0,2,1,7,4,8,5,0,0,4,5,2,0,6,1,0,0,13,4,21,5,4,7,12,4,0,0,1,0,0,2,3,0,0,18,0,0,5,0,1,0,14,0,0,5,549.txt
5,11,0,1,6,6,0,1,0,16,13,0,2,9,0,1,7,4,0,24,0,0,0,2,1,23,4,3,12,0,0,4,5,2,0,3,0,6,2,23,0,15,5,4,4,12,0,0,0,0,0,0,2,5,0,0,3,0,0,20,1,1,0,0,0,3,9,551.txt
5,11,0,1,6,6,0,1,0,0,13,0,16,9,0,1,7,4,0,0,0,0,0,2,1,13,7,9,18,0,0,4,1,2,0,3,0,6,5,0,3,6,4,14,7,12,0,0,0,0,0,1,2,0,0,0,0,0,0,11,1,1,0,0,0,10,5,554.txt
0,13,0,0,6,9,0,1,5,29,27,0,20,13,0,0,21,11,0,8,2,0,1,3,0,1,26,20,20,18,0,5,7,1,0,21,0,6,9,13,3,0,5,6,24,14,0,0,0,0,1,2,12,1,0,0,24,1,1,2,1,0,0,6,0,2,11,557.txt
5,11,0,1,6,6,0,0,0,0,13,0,2,9,0,1,7,4,0,5,0,0,0,2,1,6,3,9,0,6,0,4,1,2,0,4,0,4,0,0,4,17,4,14,7,12,0,0,0,7,0,0,5,3,0,0,5,0,0,5,5,1,0,6,0,0,4,558.txt
5,11,4,1,6,6,0,1,0,0,26,0,13,9,0,1,7,4,0,24,0,0,0,2,1,23,21,16,7,6,0,4,1,2,0,3,1,6,5,25,3,9,5,4,5,12,0,0,0,0,0,1,3,1,0,0,1,0,0,24,1,1,0,5,0,10,7,561.txt
9,10,6,1,7,6,4,1,0,8,0,0,2,9,0,0,7,7,6,6,0,27,0,2,1,2,22,0,13,2,6,4,3,2,0,2,1,2,3,1,13,20,8,5,21,0,0,0,0,5,0,1,0,4,6,5,18,0,0,1,9,2,0,14,0,10,2,564.txt
5,11,6,1,6,6,0,1,0,25,0,0,2,9,1,1,7,4,0,18,0,0,0,2,1,23,4,0,12,0,0,4,8,2,0,7,1,6,0,7,4,21,5,3,4,12,0,0,0,0,0,0,2,0,0,0,3,0,0,17,11,1,0,16,0,10,5,566.txt
5,11,4,1,6,6,0,1,0,13,13,0,2,9,0,1,11,4,0,19,0,0,0,2,1,5,21,9,12,0,0,4,5,2,0,3,0,6,2,25,0,15,5,4,7,12,0,0,0,0,0,0,2,5,0,0,18,0,0,20,1,1,0,14,0,0,4,568.txt
5,11,0,1,6,6,0,0,0,18,13,0,2,9,0,1,7,4,0,11,0,0,0,2,1,6,20,10,0,0,0,4,1,2,0,6,0,0,0,13,0,17,5,4,7,12,0,0,0,0,0,0,2,3,0,0,22,0,0,5,7,1,0,0,0,0,5,572.txt
5,11,0,1,6,6,0,0,0,0,0,0,2,9,0,1,7,4,0,10,0,28,0,2,1,6,20,0,0,5,0,4,1,2,0,0,0,4,0,14,4,17,4,9,0,12,0,0,0,2,0,0,2,3,0,0,23,0,0,5,3,1,0,5,3,4,5,574.txt
5,11,0,1,6,6,0,1,0,0,13,0,2,9,0,1,7,4,0,4,0,0,0,2,1,5,8,9,0,0,0,4,1,2,0,4,1,6,0,2,0,17,1,14,3,12,0,0,0,0,0,0,2,7,0,0,19,0,0,18,4,1,0,0,0,10,5,576.txt
5,11,0,1,6,6,0,0,0,0,13,0,2,9,0,1,7,4,0,5,0,7,0,2,1,6,3,9,0,0,0,4,1,2,0,6,1,4,0,0,0,17,4,14,7,12,0,0,0,2,0,0,2,3,0,0,14,0,0,5,0,1,0,12,0,10,5,578.txt
5,11,4,1,6,6,0,1,0,0,0,0,2,9,0,1,7,4,0,0,0,1,0,2,1,28,3,0,14,0,1,4,1,2,0,0,1,2,0,1,1,30,4,14,0,12,0,0,0,0,0,1,2,1,5,1,0,0,0,13,11,1,0,6,2,10,4,580.txt
5,11,0,1,6,6,0,0,0,0,0,0,2,9,0,1,7,4,0,11,0,0,0,2,1,6,20,0,0,0,1,4,1,2,0,4,1,0,0,2,0,17,9,6,3,12,0,0,0,0,0,0,2,3,0,6,19,0,0,5,0,1,0,0,0,10,5,582.txt
5,11,3,1,6,6,0,0,0,0,0,0,2,9,1,1,7,4,0,5,0,3,0,2,10,11,3,0,5,13,0,4,1,2,0,30,0,0,0,9,4,17,5,14,4,12,0,0,0,2,0,0,2,3,0,0,10,0,0,5,0,1,0,0,0,4,5,584.txt
5,12,4,1,6,6,0,1,0,13,0,0,13,3,0,1,8,4,6,6,0,0,0,0,1,29,17,0,2,0,1,4,7,2,0,10,1,2,5,1,12,21,5,5,20,12,0,0,0,0,9,1,6,1,3,8,13,0,0,9,2,1,0,2,0,11,5,586.txt
5,11,0,1,6,6,0,0,0,14,13,0,2,9,0,1,7,4,0,5,0,10,0,2,1,6,4,9,0,4,0,4,1,2,0,4,0,4,0,13,0,17,5,4,7,12,0,0,0,0,0,0,2,3,0,0,25,0,0,5,0,1,0,12,0,0,5,588.txt
5,11,0,1,6,6,0,1,3,2,21,2,15,9,0,1,12,4,0,29,0,0,0,2,2,13,7,0,18,0,0,4,1,2,0,3,0,6,2,22,3,25,5,9,4,12,0,0,0,0,0,0,2,0,0,0,19,0,0,14,1,1,0,7,0,4,5,591.txt
5,11,0,1,6,6,0,1,0,0,13,0,16,9,0,1,7,4,0,15,0,0,0,2,1,13,7,3,18,4,0,4,1,2,0,3,0,6,5,13,3,6,5,4,7,12,0,0,0,0,0,1,3,1,0,0,25,0,0,8,1,1,0,0,0,3,9,594.txt
5,11,0,1,6,6,0,0,0,0,7,0,2,9,0,1,7,4,0,5,0,15,0,2,1,7,20,11,0,0,0,4,1,2,0,6,1,0,0,13,0,17,6,9,7,12,0,0,0,0,0,0,2,3,0,0,19,0,0,5,0,1,0,0,0,10,5,596.txt
5,11,3,1,6,6,0,0,3,0,0,2,2,9,2,1,7,4,0,5,0,3,0,2,10,6,3,0,5,0,0,4,1,2,0,7,0,0,0,2,4,17,9,14,3,12,0,0,0,2,0,0,2,3,0,0,0,2,0,5,0,1,0,4,4,7,5,598.txt
5,11,0,1,6,6,0,0,0,0,0,0,2,9,0,1,7,4,0,5,0,13,0,2,1,6,3,0,0,6,0,4,1,2,0,12,0,0,0,0,0,17,4,14,19,12,0,0,0,0,0,0,2,3,0,0,6,0,0,5,0,1,0,6,0,4,5,600.txt
5,11,0,1,6,6,0,0,0,2,30,0,2,9,0,1,7,4,0,11,0,0,0,2,1,7,9,0,0,0,0,4,1,2,0,4,1,0,0,22,4,17,5,14,4,12,0,0,0,0,0,0,2,3,0,0,19,0,0,5,4,1,0,0,0,0,5,603.txt
5,11,0,1,6,6,0,8,0,20,26,0,16,3,0,10,13,4,0,16,0,0,0,2,1,13,7,5,6,6,0,4,1,2,0,3,1,6,5,13,3,5,6,8,7,12,0,0,0,0,9,1,2,1,0,0,1,1,0,3,2,1,0,5,0,2,3,604.txt
5,11,0,1,6,6,0,0,0,0,26,0,2,9,0,10,12,4,0,5,0,17,0,2,1,6,20,5,0,3,0,4,1,2,0,4,0,4,0,13,0,17,6,7,7,12,0,0,0,0,0,0,2,3,0,0,1,0,0,5,0,1,0,5,7,16,7,606.txt
5,11,0,1,6,6,0,0,0,0,13,0,2,9,0,1,7,4,0,11,0,0,0,2,2,7,20,11,0,0,0,4,1,2,0,6,0,0,0,0,4,17,4,11,7,12,0,0,0,0,0,0,2,3,0,0,19,0,0,5,0,1,0,0,7,17,5,607.txt
5,11,4,1,6,6,0,0,0,0,0,0,2,9,0,1,7,4,0,10,0,0,0,2,1,6,3,0,0,6,0,4,1,2,0,0,0,0,0,0,0,17,4,14,0,12,0,0,0,0,0,0,2,3,0,0,29,0,0,5,5,1,0,6,3,16,4,613.txt
5,11,0,1,6,6,0,0,0,0,26,0,2,9,0,1,7,4,0,5,0,10,0,2,1,6,3,0,0,6,0,4,1,2,0,4,0,4,0,0,0,17,4,14,0,12,0,0,0,0,0,0,5,3,0,0,1,0,0,5,3,1,0,5,0,0,5,615.txt
5,11,3,1,6,6,0,0,0,0,26,0,2,9,0,1,7,4,0,5,0,3,0,2,6,6,20,12,0,6,0,4,1,2,0,4,0,0,0,14,4,17,4,17,7,12,0,0,0,2,0,0,2,3,0,0,17,0,0,5,0,1,0,0,0,4,7,618.txt
5,11,0,1,6,6,0,0,3,0,0,0,2,9,0,1,12,4,0,5,0,0,0,2,1,6,3,0,0,0,0,4,1,2,0,0,0,3,0,0,4,17,4,14,0,12,0,0,0,2,0,0,5,3,0,0,0,0,0,5,3,1,0,5,0,4,5,621.txt
5,11,3,1,6,6,0,0,0,0,0,0,2,9,0,1,7,4,1,10,0,3,0,2,1,6,8,0,16,6,1,4,1,2,0,0,1,3,0,1,1,17,4,5,0,12,0,0,0,2,0,0,5,3,5,9,1,0,0,10,10,1,0,5,0,10,5,623.txt
5,12,0,1,6,6,0,9,0,13,26,2,2,9,0,10,7,4,0,6,0,30,0,2,20,28,4,5,0,6,0,4,5,2,0,17,1,2,0,1,1,29,9,5,3,12,0,3,0,7,0,8,10,1,5,4,17,0,0,3,4,1,0,8,0,10,3,624.txt
5,11,0,1,6,6,0,0,0,0,0,2,2,9,2,1,7,4,0,5,0,15,0,2,1,6,3,0,0,0,0,4,1,2,0,0,1,0,0,0,4,17,4,14,0,12,0,0,0,0,0,0,2,3,0,0,0,0,0,5,0,1,0,6,0,10,5,627.txt
5,11,3,1,6,6,0,0,0,16,0,0,2,9,0,1,12,4,0,10,0,4,0,2,1,6,20,0,0,0,0,4,1,2,0,0,0,0,0,13,0,21,5,4,0,12,0,0,0,0,0,0,2,3,0,0,19,0,0,5,0,1,0,0,3,16,5,628.txt
5,11,0,1,6,6,0,0,0,0,26,0,2,9,0,1,7,4,0,10,0,17,0,2,1,6,13,0,0,6,0,4,1,2,0,0,0,4,0,14,0,17,4,8,0,12,0,0,0,0,0,0,2,3,0,0,1,0,0,5,3,1,0,5,0,0,3,629.txt
9,10,3,1,6,6,0,7,0,0,0,2,2,9,1,9,6,4,1,11,0,3,0,2,4,19,20,0,28,0,4,4,1,2,2,19,2,0,0,1,1,18,8,5,4,13,0,0,0,2,0,0,2,3,5,2,19,0,0,10,0,1,0,4,0,10,5,631.txt
15,13,0,0,6,6,0,1,3,2,15,2,15,3,0,1,1,4,0,7,0,21,0,0,0,3,7,0,18,26,0,4,5,2,0,3,0,6,5,9,2,21,8,4,4,8,0,0,0,5,7,1,2,1,0,0,12,1,0,3,1,1,0,16,8,17,4,633.txt
5,11,0,1,6,6,0,0,0,0,0,0,2,9,0,1,7,4,0,11,0,0,0,2,1,6,16,0,0,0,0,4,1,2,0,7,1,0,0,13,0,17,5,14,12,12,0,0,0,0,0,0,2,3,0,0,14,0,0,5,0,1,0,0,0,1,5,635.txt
5,11,0,1,6,6,0,0,0,0,13,0,2,9,0,1,7,4,0,5,0,0,0,2,1,6,3,12,0,0,1,4,1,2,0,4,1,0,0,0,0,17,4,14,7,12,0,0,0,0,0,0,2,3,0,0,0,0,0,18,4,1,0,0,0,10,6,637.txt
5,5,6,0,6,6,0,0,0,16,0,0,2,1,9,1,19,4,0,30,0,0,0,2,0,11,20,0,5,0,0,4,5,2,0,7,0,4,0,9,4,21,5,4,4,8,0,0,0,0,0,0,5,3,0,0,3,0,0,5,3,1,0,15,0,4,5,642.txt
5,11,0,1,6,6,0,0,0,0,26,0,2,9,0,1,7,4,0,11,0,0,0,2,1,6,13,27,0,6,0,4,1,2,0,6,0,3,0,21,0,17,5,10,4,12,0,0,0,0,0,0,5,3,0,0,1,0,0,5,3,1,0,5,0,0,7,645.txt
9,12,0,1,6,6,0,0,3,0,26,0,4,9,1,10,7,4,0,23,0,1,0,2,6,28,3,6,5,6,4,4,1,2,0,20,1,20,7,1,1,17,8,5,21,12,0,5,0,0,0,10,5,1,5,4,1,2,0,18,11,1,0,6,7,10,3,647.txt
11,11,0,1,6,6,0,1,3,0,30,0,9,9,0,1,7,4,0,23,0,1,0,2,2,5,20,0,0,6,0,4,1,2,0,0,0,3,0,14,4,21,8,17,0,12,0,0,0,0,0,0,2,5,0,0,1,0,0,18,3,1,0,5,7,14,7,650.txt
5,11,0,1,6,6,0,8,0,16,13,0,16,9,1,10,12,4,0,26,0,0,0,2,1,13,21,5,12,0,0,4,1,2,0,3,0,6,2,13,2,11,5,4,7,12,0,0,0,0,0,0,5,0,0,0,19,0,0,25,1,1,0,0,0,4,4,652.txt
5,11,0,1,6,6,0,0,0,13,0,0,2,9,0,9,7,4,0,10,0,0,0,2,1,6,4,0,0,23,0,4,5,2,0,0,0,4,0,25,0,21,5,4,5,12,0,0,0,2,0,0,5,3,0,0,18,0,0,5,3,1,0,14,0,0,5,654.txt
5,11,4,1,6,6,0,1,0,13,0,0,2,9,0,1,12,4,0,18,0,0,0,2,1,13,7,0,18,0,0,4,8,2,0,3,0,6,2,25,0,21,5,3,0,12,0,0,0,0,0,0,2,0,0,0,18,0,0,25,1,1,0,14,0,10,5,657.txt
5,11,0,1,6,6,0,0,0,0,0,2,2,9,0,1,7,4,0,11,0,0,0,2,1,6,20,0,0,0,0,4,1,2,0,30,1,0,0,14,4,17,4,20,0,12,0,0,0,2,0,0,5,3,0,6,19,0,0,5,0,1,0,10,3,8,5,658.txt
5,11,3,1,6,6,0,7,0,0,29,2,2,9,0,9,7,4,0,5,0,3,0,2,1,6,3,0,0,23,0,4,1,2,0,0,0,4,0,14,4,22,4,14,0,12,0,0,0,7,0,0,5,3,0,0,10,0,0,5,7,1,0,10,0,4,5,662.txt
5,11,0,1,6,6,0,1,0,0,26,0,13,9,0,1,12,4,0,4,0,0,0,2,1,13,7,0,6,3,0,4,1,2,0,3,0,6,5,14,3,6,8,14,7,12,0,0,0,0,0,1,3,0,0,0,1,0,0,11,1,1,0,5,3,8,3,663.txt
5,11,0,1,6,6,0,0,0,0,0,2,2,9,0,1,7,4,0,11,0,0,0,2,1,6,3,0,0,0,0,4,1,2,0,13,0,19,0,0,4,17,4,14,19,12,0,0,0,0,0,0,5,3,0,0,14,0,0,5,0,1,0,6,0,1,5,665.txt
5,11,0,1,6,6,0,1,0,0,0,1,2,9,0,1,7,4,0,4,0,0,0,2,1,6,3,0,0,0,0,4,1,2,0,0,0,4,0,0,4,17,4,14,0,12,0,0,0,0,0,0,2,3,0,0,0,0,0,18,3,1,0,8,0,4,5,669.txt
5,11,0,1,6,6,0,0,0,0,0,0,2,9,0,1,7,4,0,5,0,0,0,2,1,6,3,0,16,0,1,4,1,2,0,4,1,3,0,0,4,17,4,14,0,12,0,0,0,0,0,0,5,3,0,0,0,0,0,10,10,1,0,5,3,10,5,671.txt
5,11,0,1,6,6,0,1,3,0,0,2,15,9,13,1,12,4,0,15,0,0,0,2,6,13,7,0,8,0,1,4,5,2,0,3,1,2,5,13,2,21,5,4,0,12,0,0,0,0,0,1,2,1,0,0,8,0,0,11,2,1,0,7,0,10,5,673.txt
5,11,0,1,6,6,0,1,0,0,13,0,13,9,0,1,7,4,0,8,0,0,0,2,1,14,7,10,7,6,0,4,1,2,0,3,1,2,5,13,3,6,5,11,7,12,0,0,0,0,0,1,2,1,0,0,1,0,0,22,2,1,0,0,0,10,5,675.txt
5,12,0,1,6,13,0,8,0,16,13,0,15,9,0,0,7,10,0,15,0,0,0,0,1,15,7,5,18,4,1,4,1,2,0,2,1,2,5,1,12,4,5,5,29,0,0,0,0,5,0,1,0,1,6,4,25,0,0,0,2,0,0,12,3,10,4,678.txt
5,11,0,1,6,8,0,1,0,0,13,0,13,9,0,1,12,4,0,17,0,0,0,2,1,13,7,18,4,0,0,4,1,2,0,3,1,6,5,14,3,6,4,7,7,12,0,0,0,0,0,1,2,1,0,0,18,0,0,7,1,1,0,5,0,10,5,680.txt
5,11,0,1,6,6,0,0,0,0,13,0,2,9,0,1,7,4,0,5,0,0,0,2,1,6,3,0,0,0,0,4,1,2,0,4,0,4,0,0,0,17,4,14,7,12,0,0,0,0,0,0,2,3,0,0,0,0,0,5,0,1,0,12,0,0,5,683.txt
5,11,0,1,6,6,0,0,0,0,13,0,2,9,0,10,7,4,0,5,0,0,0,2,1,6,13,5,0,13,0,4,1,2,0,6,0,0,0,13,0,17,5,6,7,12,0,0,0,2,0,0,2,3,0,0,10,0,0,5,0,1,0,0,0,4,5,685.txt
5,11,0,1,6,6,0,0,0,0,0,0,2,9,0,1,7,4,0,5,0,28,0,2,1,6,3,0,0,0,0,4,1,2,0,4,0,0,0,0,0,17,4,14,17,12,0,0,0,0,0,0,2,3,0,0,0,0,0,5,0,1,0,0,0,0,5,687.txt
5,11,0,1,6,6,0,0,0,0,0,0,2,9,0,1,7,4,0,11,0,0,0,2,1,6,3,0,0,5,0,4,1,2,0,0,0,0,0,0,0,17,4,14,0,12,0,0,0,0,0,0,2,3,0,0,10,0,0,5,0,1,0,6,0,0,5,689.txt
5,11,0,1,6,6,0,1,3,18,13,0,2,9,1,1,7,4,0,24,0,0,0,2,1,5,20,9,0,0,0,4,1,2,0,6,1,6,0,13,4,17,5,4,7,12,0,0,0,0,0,0,2,5,0,0,19,0,0,18,4,1,0,0,3,10,5,691.txt
9,12,0,1,6,6,0,0,0,2,28,0,2,9,0,10,7,4,0,11,0,0,0,2,1,22,4,5,16,6,4,4,5,2,0,4,1,0,0,1,1,17,8,5,4,12,0,0,0,0,0,1,2,1,5,4,18,0,0,10,4,1,0,14,0,10,5,695.txt
5,11,4,1,6,6,0,1,0,16,0,0,2,9,0,1,7,4,0,18,0,0,0,2,1,25,20,0,13,0,1,4,1,2,0,0,1,2,0,13,0,21,5,4,0,12,0,0,0,0,0,1,2,0,0,1,19,0,0,15,4,1,0,3,0,10,5,696.txt
5,11,0,1,6,6,0,1,0,0,13,0,2,9,0,1,7,4,0,7,0,0,0,2,1,25,21,9,8,0,1,4,1,2,0,4,1,2,0,1,12,9,5,5,4,12,0,0,0,0,0,1,3,1,5,6,19,0,0,11,10,1,0,11,0,10,5,700.txt
10,17,0,1,6,9,0,1,5,0,14,0,15,3,0,1,1,3,0,0,0,1,0,3,2,29,17,0,2,15,0,4,7,2,0,3,1,6,5,0,2,3,4,14,0,12,0,0,0,0,9,2,1,1,0,0,0,1,1,3,1,1,0,0,2,2,5,703.txt
9,12,3,1,6,6,0,0,0,2,29,0,2,9,0,10,5,4,1,10,0,3,0,2,10,2,4,5,27,2,18,4,8,2,0,20,2,0,4,1,1,21,8,5,21,13,0,0,0,2,0,1,2,2,5,9,18,0,0,10,4,1,0,14,5,10,2,705.txt
5,11,0,1,6,6,0,1,0,0,0,0,2,9,0,1,7,4,0,24,0,0,0,2,1,23,8,0,0,5,0,4,1,2,0,4,1,6,0,14,0,15,4,18,0,12,0,0,0,0,0,0,2,0,0,0,10,0,0,20,4,1,0,0,0,10,5,706.txt
5,11,4,1,1,6,0,0,0,2,29,0,2,9,0,1,7,4,0,9,0,27,0,2,1,30,4,17,0,0,0,4,8,2,0,6,0,4,0,9,0,21,1,2,4,12,5,0,0,0,0,0,2,3,0,0,18,0,0,5,15,1,0,14,0,0,5,709.txt
5,11,6,1,6,6,0,0,0,11,0,0,2,9,0,1,7,4,0,30,0,27,0,2,1,30,4,0,0,0,0,4,8,2,0,0,0,15,0,25,0,21,5,3,5,12,0,0,0,0,0,0,2,3,0,0,22,0,0,5,7,1,0,2,3,4,10,711.txt
9,11,4,1,6,6,0,0,3,2,30,2,2,9,1,1,7,4,0,10,0,28,0,2,1,7,20,0,0,0,0,4,1,2,0,7,0,0,0,25,4,17,8,4,30,12,0,0,0,0,0,0,2,3,0,0,22,0,0,5,0,1,0,4,7,17,5,712.txt
0,16,3,0,0,9,0,1,3,1,27,2,20,12,0,12,15,0,0,2,2,28,1,1,9,18,1,2,20,1,0,1,6,4,0,21,0,6,9,9,10,0,11,4,27,0,6,0,0,0,1,7,7,1,0,0,19,1,1,0,1,0,1,6,0,11,11,713.txt
5,11,3,1,6,6,0,7,0,0,0,0,2,9,0,13,7,4,0,5,0,3,0,2,1,6,3,0,0,6,0,4,1,2,0,0,0,4,0,0,4,22,4,14,0,12,0,0,0,6,0,0,2,3,0,0,27,0,0,5,0,1,0,12,0,4,5,716.txt
5,11,0,1,6,6,0,0,0,11,13,0,2,9,0,11,7,2,0,10,0,27,0,2,1,2,4,5,0,0,0,4,8,2,0,6,1,0,0,29,0,21,5,3,4,12,3,0,0,4,0,0,4,3,0,0,3,0,0,5,4,1,0,2,0,10,4,722.txt
5,11,0,1,6,6,0,1,0,0,26,0,2,9,0,1,12,4,0,24,0,0,0,2,1,6,16,0,7,3,0,4,1,2,0,3,0,6,2,0,0,16,4,18,7,12,0,0,0,0,0,0,5,5,0,0,1,0,0,23,1,1,0,5,7,17,7,724.txt
5,11,3,1,6,6,0,7,3,2,29,2,2,9,1,9,7,4,0,5,0,3,0,2,15,6,3,0,5,4,0,4,1,2,0,0,0,0,0,4,4,22,5,14,4,12,0,0,0,7,0,0,2,3,0,0,7,0,0,5,7,1,0,4,0,4,5,727.txt
15,11,0,1,6,6,0,1,0,0,0,0,15,3,0,1,1,4,0,8,0,0,0,0,1,3,7,0,18,15,0,4,1,2,0,3,0,6,5,25,3,3,5,9,5,12,0,0,0,0,8,1,2,1,0,0,19,1,0,3,1,1,0,5,0,0,4,728.txt
5,11,0,1,6,6,0,1,0,0,13,0,2,9,0,1,7,4,0,4,0,10,0,2,1,25,12,9,0,6,0,4,1,2,0,4,1,2,0,14,0,17,4,11,7,12,0,0,0,2,0,0,2,0,0,0,6,0,0,18,14,1,0,5,3,10,5,732.txt
5,11,0,1,6,6,0,1,0,0,13,0,13,1,0,1,12,4,0,29,0,0,0,2,1,13,7,0,18,0,0,4,1,2,0,3,1,6,5,14,2,25,1,11,7,12,0,0,0,0,0,1,2,0,0,0,14,0,0,14,1,1,0,0,7,10,5,734.txt
5,11,0,1,6,6,0,1,0,0,13,0,15,9,0,1,7,4,6,0,0,1,0,2,1,3,7,10,18,0,1,4,1,2,0,3,1,2,5,1,14,6,4,5,7,12,0,0,0,5,0,1,6,1,5,8,14,0,0,19,2,1,0,0,7,10,4,735.txt
5,11,4,1,6,6,0,0,0,25,0,0,2,9,0,1,12,4,0,9,0,0,0,2,1,7,4,0,0,0,0,4,8,2,0,12,1,4,0,5,0,21,5,3,4,12,0,0,0,0,0,0,5,3,0,0,3,0,0,5,14,1,0,16,0,10,5,737.txt
5,11,0,1,6,6,0,1,0,0,13,0,13,3,0,1,12,4,0,14,0,0,0,2,1,13,7,18,18,5,0,4,1,2,0,3,0,6,5,13,3,6,5,14,7,12,0,0,0,0,0,1,2,1,0,0,11,0,0,7,1,1,0,0,0,0,5,738.txt
5,11,0,1,6,6,0,0,0,0,13,0,2,9,0,1,7,4,0,11,0,17,0,2,1,7,20,16,0,0,0,4,1,2,0,6,1,0,0,21,0,17,5,4,4,12,4,0,0,2,0,0,2,3,0,0,3,0,0,5,0,1,0,0,0,0,5,741.txt
5,13,4,0,6,6,0,1,0,8,0,0,2,1,0,1,14,1,0,9,0,27,0,2,0,0,4,0,0,0,0,5,8,2,0,14,0,13,0,3,0,21,0,2,4,5,0,0,0,0,0,0,2,3,0,0,3,0,0,5,3,1,0,16,0,4,5,743.txt
5,11,0,1,6,6,0,1,0,18,13,0,2,9,0,1,7,4,0,29,0,0,0,2,1,28,21,9,18,0,0,4,1,2,0,4,1,6,5,21,0,30,9,11,3,12,0,0,0,0,0,1,2,0,0,0,19,0,0,14,2,1,0,0,0,10,5,747.txt
0,16,0,0,0,9,0,1,8,28,27,0,20,12,0,0,21,0,0,2,2,0,1,1,9,18,1,2,20,18,0,1,6,1,0,21,0,6,9,13,10,0,11,4,22,0,6,0,0,5,1,7,12,1,0,0,19,1,1,0,1,0,1,0,3,0,11,748.txt
5,11,0,1,6,6,0,0,0,0,26,0,2,9,0,1,7,4,0,5,0,0,0,2,1,6,3,9,0,6,0,4,1,2,0,4,0,3,0,0,0,17,4,14,7,12,0,0,0,0,0,0,5,3,0,0,1,0,0,5,3,1,0,5,0,0,7,751.txt
5,11,3,1,6,6,0,0,3,2,29,2,2,5,7,9,7,4,0,11,0,3,0,2,1,6,4,8,5,6,0,4,8,2,0,6,2,3,0,1,1,19,5,5,7,12,0,5,0,2,0,0,5,3,5,4,17,0,4,5,10,1,0,10,3,10,3,755.txt
9,11,0,1,6,6,0,8,0,2,15,0,16,3,1,10,29,4,0,7,0,0,0,0,1,13,7,5,7,15,0,4,5,2,0,3,0,6,5,5,3,4,1,4,4,12,4,0,0,0,9,1,2,1,0,0,1,1,0,3,1,1,0,14,5,13,5,756.txt
5,11,0,1,6,6,0,1,0,0,26,0,13,9,0,1,7,1,0,0,0,0,0,2,1,3,7,0,6,6,1,4,1,2,0,3,1,2,5,1,12,6,4,5,12,12,0,0,0,0,0,1,2,1,5,1,1,0,0,3,2,1,0,5,0,10,7,760.txt
5,11,3,1,6,6,0,0,3,18,13,2,2,9,7,10,22,4,0,11,0,3,0,2,6,6,20,5,5,6,0,4,5,2,0,6,0,3,0,13,4,17,5,4,7,12,0,0,0,2,0,0,5,3,0,0,1,0,0,5,3,1,0,10,0,4,5,765.txt
5,11,3,1,6,6,0,0,0,2,29,0,2,9,0,1,12,4,0,10,0,3,0,2,1,6,4,0,0,0,0,4,5,2,0,0,0,0,0,9,0,17,5,4,4,12,0,0,0,2,0,0,2,3,0,0,3,0,0,5,0,1,0,2,0,0,5,766.txt
5,11,0,1,6,6,0,0,0,0,13,0,2,9,0,1,22,4,0,5,0,0,0,2,1,6,3,0,0,5,0,4,1,2,0,6,0,3,0,0,0,17,4,14,7,12,0,0,0,0,0,0,2,3,0,0,9,0,0,5,3,1,0,5,0,0,6,768.txt
5,11,4,1,6,6,0,8,0,25,13,0,16,3,0,10,1,4,0,6,0,0,0,0,1,13,7,5,7,15,0,4,8,2,0,3,0,6,5,21,3,21,5,3,4,12,0,0,0,5,8,1,2,2,0,0,20,1,0,3,1,1,0,14,0,0,4,771.txt
5,11,0,1,6,6,0,8,0,13,13,0,16,9,0,10,12,2,0,27,0,0,0,2,1,13,7,5,8,3,0,4,1,2,0,3,0,6,5,11,3,10,5,4,7,12,2,0,0,0,0,0,4,0,0,0,5,0,0,25,1,1,0,14,0,0,5,772.txt
5,11,0,1,6,6,0,0,0,0,13,0,2,9,0,6,7,4,0,5,0,0,0,2,1,6,3,13,0,0,0,4,1,2,0,6,0,0,0,0,4,22,4,14,7,12,0,0,0,2,0,0,5,3,0,0,0,0,0,5,0,1,0,6,0,4,5,773.txt
5,11,0,1,6,6,0,8,0,16,13,0,16,3,0,10,1,4,0,6,0,0,0,0,1,13,7,5,18,15,0,4,1,2,0,3,1,6,5,21,2,3,9,4,3,12,0,0,0,0,8,1,2,1,0,0,19,1,0,3,1,1,0,0,0,2,6,775.txt
5,13,0,0,6,6,0,1,0,19,13,0,3,1,0,1,0,4,0,27,0,8,0,2,0,0,29,9,18,5,0,2,1,0,0,3,0,1,2,13,3,6,0,6,7,1,0,0,0,0,0,0,2,0,0,0,9,0,0,12,1,1,0,6,7,16,4,777.txt
5,11,0,1,6,6,0,8,3,13,13,2,16,9,1,10,7,4,0,7,0,0,0,2,1,28,7,5,18,0,0,4,1,2,0,3,1,6,5,9,12,6,5,4,4,12,0,0,0,5,0,1,10,1,0,4,13,0,0,3,2,1,0,14,0,10,5,779.txt
5,11,0,1,6,6,0,0,0,0,0,0,2,9,0,1,7,4,0,5,0,19,0,2,1,6,3,23,0,0,0,4,1,2,0,7,0,0,0,0,0,17,4,14,9,12,0,0,0,2,0,0,5,3,0,0,0,0,0,5,0,1,0,0,2,18,9,781.txt
5,11,0,1,6,6,0,0,0,0,0,0,2,9,0,1,7,4,0,11,0,0,0,2,1,6,20,0,0,0,0,4,1,2,0,4,0,4,0,0,0,17,4,10,0,12,0,0,0,0,0,0,2,3,0,0,19,0,0,5,0,1,0,6,0,4,5,785.txt
5,11,0,1,6,6,0,0,0,0,0,0,2,9,0,1,7,4,0,11,0,0,0,2,1,6,3,0,0,4,0,4,1,2,0,14,0,4,0,0,0,17,4,14,0,12,0,0,0,0,0,0,5,3,0,0,25,0,0,5,3,1,0,5,3,16,5,787.txt
5,11,0,1,6,6,0,1,0,0,13,0,2,9,0,1,7,4,6,7,0,0,0,2,1,23,7,9,18,5,1,4,1,2,0,4,1,2,0,1,12,6,5,5,4,12,0,0,0,0,0,1,2,1,5,9,9,0,0,19,4,1,0,0,0,10,5,790.txt
5,11,0,1,6,6,0,3,0,13,13,0,2,9,0,10,7,4,0,24,0,0,0,2,1,27,4,5,0,0,0,4,5,2,0,4,1,6,0,21,6,17,9,4,3,12,4,0,0,0,0,0,2,0,0,0,30,0,0,18,14,1,0,14,0,10,5,792.txt
5,11,0,1,6,6,0,1,0,0,0,0,13,3,0,1,13,4,0,15,0,0,0,2,1,13,7,0,18,5,0,4,1,2,0,3,0,6,5,13,3,5,5,4,17,12,0,0,0,0,9,1,3,1,0,0,10,1,0,4,1,1,0,6,0,0,5,796.txt
5,11,0,1,6,6,0,1,0,0,0,0,2,9,0,1,12,4,0,11,0,0,0,2,1,6,3,0,0,3,0,4,1,2,0,0,0,0,0,0,0,17,4,14,0,12,0,0,0,0,0,0,2,3,0,0,6,0,0,18,4,1,0,0,0,4,5,800.txt
5,11,0,1,6,6,0,0,0,0,0,0,2,9,0,1,7,4,0,11,0,0,0,2,1,6,3,0,0,0,0,4,1,2,0,16,1,0,0,0,4,17,4,14,0,12,0,0,0,0,0,0,2,3,0,1,0,0,0,5,4,1,0,0,0,10,6,802.txt
0,11,0,1,15,9,0,8,3,30,1,2,20,13,0,0,15,0,0,15,6,21,2,5,1,15,25,20,21,15,0,0,7,1,0,25,1,6,9,20,7,0,8,1,22,0,1,0,0,5,1,7,7,1,2,4,8,1,3,0,8,0,2,1,1,11,11,806.txt
5,11,0,1,6,6,0,0,0,19,0,0,2,9,0,1,7,4,0,11,0,28,0,2,1,6,20,0,0,4,0,4,1,2,0,7,0,0,0,13,0,17,5,6,12,12,0,0,0,0,0,0,2,3,0,0,25,0,0,5,0,1,0,0,0,0,5,807.txt
5,11,0,1,6,6,0,1,0,0,13,0,2,9,0,1,7,4,0,27,0,0,0,2,1,23,20,3,12,0,0,4,1,2,0,4,0,6,0,25,0,17,5,17,7,12,0,0,0,0,0,0,2,5,0,0,19,0,0,23,4,1,0,0,0,3,9,810.txt
5,11,3,1,6,6,0,0,0,0,0,0,2,9,0,1,12,4,0,5,0,3,0,2,1,6,3,0,0,5,0,4,1,2,0,4,0,0,0,8,0,17,5,14,4,12,0,0,0,2,0,0,2,3,0,0,10,0,0,5,0,1,0,0,0,0,5,813.txt
9,10,0,1,6,6,0,0,3,2,29,2,2,9,0,1,7,4,1,11,0,14,0,2,2,22,4,8,16,6,4,4,5,2,0,20,1,0,0,1,1,17,8,5,21,12,0,0,0,0,0,1,2,1,5,9,2,0,0,10,4,1,0,4,8,10,5,816.txt
5,11,0,1,6,6,0,0,0,0,13,2,2,9,1,9,7,4,0,11,0,14,0,2,1,6,20,15,5,0,0,4,5,2,0,6,2,0,0,13,4,19,6,4,7,12,0,0,0,7,0,0,5,3,0,0,18,0,0,5,0,1,0,4,0,1,5,817.txt
5,11,4,1,6,6,0,0,0,15,26,2,2,9,0,1,7,4,0,9,0,0,0,2,10,6,4,9,0,6,0,4,1,2,0,6,0,0,0,9,4,21,5,4,4,12,0,0,0,0,0,0,5,3,0,0,16,0,0,5,0,1,0,0,0,4,7,818.txt
5,11,3,1,6,6,0,7,0,2,29,0,2,9,0,9,7,4,0,11,0,3,0,2,1,6,4,0,0,0,0,4,1,2,0,15,0,0,0,2,4,22,9,7,23,12,0,0,0,2,0,0,2,3,0,0,12,0,0,5,0,1,0,2,0,0,5,821.txt
5,13,4,0,6,6,0,1,0,16,0,0,15,1,0,1,19,4,0,18,0,0,0,2,0,13,7,0,18,0,1,4,5,2,0,3,1,6,5,21,3,21,5,4,4,8,0,0,0,0,0,1,2,2,0,0,22,0,0,11,1,1,0,3,0,10,4,824.txt
5,11,0,1,6,6,0,1,0,0,0,2,2,9,0,1,12,4,0,5,0,0,0,2,1,6,3,0,0,0,0,4,1,2,0,0,0,0,0,0,4,17,4,14,0,12,0,0,0,0,0,0,2,3,0,0,0,0,0,5,0,1,0,0,3,4,5,827.txt
5,11,0,1,6,6,0,3,0,0,13,0,2,9,26,1,7,4,6,4,0,0,0,2,1,28,3,13,25,0,1,4,1,2,0,4,1,2,0,1,1,17,4,5,7,12,0,0,0,0,0,1,2,1,5,2,14,0,0,10,10,1,0,5,0,10,5,831.txt
5,11,0,1,6,6,0,0,0,0,0,0,2,9,0,1,7,4,0,5,0,17,0,2,1,6,3,0,0,0,0,4,1,2,0,0,1,0,0,0,4,17,4,14,0,12,0,0,0,0,0,0,2,3,0,0,0,0,0,5,0,1,0,0,3,4,5,832.txt
5,13,0,0,6,6,0,0,0,0,13,0,2,1,0,1,18,4,0,11,0,0,0,2,0,0,20,9,0,0,0,5,1,2,0,4,0,4,0,14,0,17,0,7,7,5,0,0,0,0,0,0,5,3,0,0,19,0,0,5,7,1,0,5,0,0,5,834.txt
9,11,0,1,6,6,0,1,0,0,0,0,2,9,0,1,7,4,0,28,0,0,0,2,1,14,3,0,0,0,0,4,1,2,0,4,0,6,0,14,4,17,1,14,7,12,0,0,0,0,0,0,2,5,0,0,14,0,0,18,11,1,0,6,2,10,5,836.txt
5,11,0,1,6,6,0,0,0,17,13,2,2,9,0,1,7,4,0,5,0,0,0,2,1,6,20,9,0,5,0,4,1,2,0,4,0,0,0,25,4,17,5,7,30,12,0,0,0,2,0,0,5,3,0,0,24,0,0,5,0,1,0,6,0,0,5,839.txt
5,11,4,1,6,6,0,0,3,0,0,2,2,9,0,1,7,4,1,19,0,0,0,2,2,28,20,3,25,0,1,4,1,2,0,30,1,3,0,1,1,17,5,5,0,12,0,0,0,0,0,1,2,0,5,9,18,0,0,10,10,1,0,5,0,10,9,842.txt
5,11,0,1,6,6,0,0,0,0,0,0,2,9,0,1,7,4,0,5,0,10,0,2,1,6,3,0,0,0,0,4,1,2,0,7,0,4,0,0,0,17,4,14,18,12,0,0,0,2,0,0,5,3,0,0,0,0,0,5,3,1,0,5,0,4,5,847.txt
5,11,4,1,6,6,0,0,0,0,26,0,2,9,0,1,7,4,0,30,0,0,0,2,1,6,13,0,0,6,0,4,1,2,0,0,0,14,0,0,0,21,4,7,0,12,0,0,0,2,0,0,2,3,0,0,16,0,0,5,0,1,0,3,0,4,7,851.txt
0,11,6,1,9,9,0,1,3,30,27,0,20,13,0,0,21,9,0,15,3,0,1,3,1,29,26,21,20,15,0,4,7,1,0,21,1,2,10,13,10,27,5,4,22,0,0,0,0,5,1,7,7,1,0,0,3,1,1,0,8,0,2,16,0,11,11,852.txt
5,11,0,1,6,6,0,0,0,13,13,0,2,9,0,10,7,4,0,10,0,28,0,2,1,6,4,5,16,0,1,4,5,2,0,4,1,0,0,9,1,17,5,4,4,12,0,0,0,0,0,0,2,3,0,6,15,0,0,10,0,1,0,0,0,10,5,855.txt
9,13,0,1,6,6,0,8,0,18,26,0,16,3,0,10,8,4,0,8,0,1,0,2,1,13,7,5,6,3,0,4,1,2,0,3,0,6,5,13,3,6,1,4,7,12,0,0,0,0,0,1,2,1,0,0,1,0,0,8,1,1,0,5,7,13,7,857.txt
5,11,0,1,6,6,0,0,0,0,26,0,2,9,0,1,7,4,0,5,0,6,0,2,1,6,3,0,0,6,0,4,1,2,0,4,1,4,0,0,0,17,4,14,10,12,0,5,0,0,0,0,2,3,0,0,1,0,2,5,10,1,0,5,0,10,3,859.txt
5,11,0,1,6,6,0,1,0,0,0,0,13,9,0,1,7,4,0,24,0,0,0,2,1,23,7,0,18,0,1,4,1,2,0,3,1,2,5,2,3,25,9,10,3,12,0,0,0,0,0,1,2,1,0,0,19,0,0,12,2,1,0,6,0,10,6,861.txt
11,11,0,1,6,6,0,0,0,11,13,0,2,9,0,1,22,4,0,10,0,21,0,2,1,30,4,9,0,6,0,4,8,2,0,6,0,3,0,21,0,21,8,2,4,12,4,0,0,2,0,0,2,3,0,0,1,0,0,5,3,1,0,14,5,15,5,864.txt
10,13,0,0,6,9,0,1,5,13,14,0,16,3,0,1,1,3,0,7,0,0,0,3,0,0,17,9,2,9,0,5,7,3,0,3,0,6,1,10,2,3,12,4,4,2,0,0,0,4,3,2,1,1,0,0,3,1,1,3,1,1,0,16,0,2,4,866.txt
5,11,0,1,6,6,0,8,3,0,13,2,15,3,0,4,1,4,0,17,0,0,0,0,1,3,7,5,18,25,0,4,1,2,0,3,1,6,5,14,3,3,4,14,7,12,0,0,0,5,9,1,6,1,0,0,9,1,0,3,2,1,0,6,0,4,4,868.txt
5,11,0,1,6,6,0,0,0,0,0,0,2,9,0,1,7,4,0,5,0,0,0,2,1,6,3,0,0,0,0,4,1,2,0,30,0,0,0,0,4,17,4,14,0,12,0,0,0,7,0,0,2,3,0,0,0,0,0,5,0,1,0,0,3,16,5,870.txt
5,11,0,1,6,6,0,1,0,16,13,0,13,9,0,1,7,4,0,7,0,0,0,2,1,23,7,0,18,4,1,4,1,2,0,3,1,2,5,6,3,6,5,4,4,12,0,0,0,0,0,1,2,1,0,0,25,0,0,11,2,1,0,0,0,10,5,872.txt
5,11,6,1,1,6,4,0,0,9,0,0,2,9,0,1,7,4,0,21,0,27,0,2,1,30,4,0,0,0,0,4,8,2,0,0,0,5,0,21,0,21,5,2,20,12,0,0,0,0,0,0,2,3,0,0,18,0,0,5,5,1,0,14,0,0,5,874.txt
5,11,0,1,6,6,0,0,0,0,0,0,2,9,0,1,7,4,0,11,0,10,0,2,1,6,3,0,0,0,0,4,1,2,0,4,0,4,0,14,0,17,4,14,18,12,0,0,0,2,0,0,2,3,0,0,0,0,0,5,3,1,0,5,0,4,5,879.txt
5,11,0,1,6,6,0,0,3,0,0,2,2,9,0,1,7,4,0,5,0,17,0,2,1,8,3,0,0,0,0,4,1,2,0,0,0,0,0,0,4,17,4,14,0,12,0,0,0,0,0,0,2,3,0,0,0,0,0,5,0,1,0,4,0,4,5,882.txt
5,11,3,1,6,6,0,0,0,2,29,0,2,9,0,1,12,4,0,9,0,3,0,2,1,30,4,0,0,0,0,4,8,2,0,7,0,15,0,22,4,21,5,3,4,12,0,0,0,1,0,0,2,3,0,0,18,0,0,5,15,1,0,14,0,4,5,884.txt
5,11,4,1,6,6,0,0,0,0,0,0,2,9,0,1,7,4,0,9,0,0,0,2,1,6,20,0,0,6,0,4,1,2,0,0,0,0,0,27,0,21,4,10,0,12,0,0,0,0,0,0,2,3,0,0,5,0,0,5,0,1,0,3,0,0,5,885.txt
5,11,0,1,6,6,0,0,0,19,13,0,2,9,0,1,7,4,0,11,0,17,0,2,1,6,20,0,0,0,0,4,1,2,0,6,0,0,0,13,4,17,5,4,7,12,0,0,0,0,0,0,2,3,0,0,18,0,0,5,0,1,0,6,0,4,5,886.txt
5,11,0,1,6,6,0,1,3,0,0,0,2,9,0,1,7,4,0,19,0,0,0,2,1,28,20,0,0,0,0,4,1,2,0,7,1,6,0,14,0,12,4,7,14,12,0,0,0,0,0,1,2,0,0,0,19,0,0,15,11,1,0,6,0,0,5,889.txt
9,11,3,1,6,6,0,0,0,2,29,0,2,9,0,1,7,4,0,9,0,3,0,2,1,19,4,0,0,0,0,4,1,2,0,0,0,3,0,21,0,21,8,4,3,12,0,0,0,2,0,0,5,3,0,0,13,0,0,5,3,1,0,14,4,0,5,891.txt
5,11,0,1,6,6,0,1,0,0,0,0,13,9,0,1,7,4,0,0,0,0,0,2,1,23,7,0,18,0,0,4,1,2,0,3,0,6,5,0,2,25,4,14,0,12,0,0,0,0,0,1,2,0,0,0,0,0,0,24,1,1,0,0,0,0,5,893.txt
5,11,4,1,6,6,0,0,0,12,0,0,2,9,0,1,7,4,0,9,0,0,0,2,1,6,4,0,3,6,1,4,8,2,0,0,1,4,0,9,0,21,5,3,4,12,0,0,0,0,0,0,2,3,0,0,18,0,0,18,14,1,0,14,0,10,5,896.txt
5,10,0,1,6,6,0,1,0,13,13,0,13,9,0,1,7,4,6,7,0,0,0,2,1,13,7,9,18,0,1,4,5,2,0,3,1,2,5,10,14,5,5,4,4,12,0,0,0,0,0,1,2,1,0,9,22,0,0,19,2,1,0,6,0,10,5,900.txt
5,11,0,1,6,6,0,1,0,0,0,0,13,9,0,1,7,4,6,0,0,0,0,2,1,28,7,0,18,0,1,4,1,2,0,3,1,2,5,0,12,6,4,14,0,12,0,0,0,0,0,1,2,1,0,9,14,0,0,19,2,1,0,0,0,10,6,902.txt
9,12,0,1,1,6,0,0,3,11,26,2,2,9,9,9,17,4,3,9,0,27,0,2,10,30,4,1,5,6,0,4,8,2,0,20,2,4,13,1,1,21,8,5,3,16,0,5,1,2,0,0,5,3,5,4,26,0,4,5,10,1,0,10,0,5,3,905.txt
5,11,4,1,6,6,0,0,0,16,0,0,2,9,0,1,7,4,0,9,0,0,0,2,1,6,20,0,0,0,0,4,1,2,0,0,0,4,0,13,0,21,6,4,0,12,0,0,0,0,0,0,2,3,0,0,22,0,0,5,0,1,0,3,0,4,5,907.txt
5,11,3,1,6,6,0,0,0,0,0,0,2,9,0,1,7,4,0,5,0,28,0,2,1,6,3,0,0,0,0,4,1,2,0,0,1,0,0,0,4,17,4,14,0,12,0,0,0,6,0,0,2,3,0,0,0,0,0,5,0,1,0,0,0,10,5,909.txt
5,11,4,1,6,6,0,1,0,16,0,0,2,9,0,1,7,4,0,18,0,0,0,2,1,5,20,0,0,6,0,4,5,2,0,0,0,6,0,14,0,21,6,4,0,12,0,0,0,0,0,0,2,5,0,0,18,0,0,18,11,1,0,3,3,16,5,911.txt
5,11,0,1,6,6,0,0,0,0,0,0,2,9,0,1,7,4,0,5,0,17,0,2,1,6,3,0,0,0,0,4,1,2,0,0,1,0,0,0,0,17,4,14,0,12,0,0,0,6,0,0,2,3,0,0,0,0,0,5,0,1,0,0,0,4,5,914.txt
5,12,0,1,6,6,0,9,3,0,26,2,2,9,1,0,7,4,0,15,0,0,0,2,1,29,7,8,5,6,0,4,1,2,0,11,1,2,3,1,1,6,5,5,21,12,0,2,0,0,0,3,0,1,3,6,1,0,4,3,4,0,0,0,0,10,3,917.txt
5,11,4,1,6,6,0,1,0,18,0,0,2,9,0,1,7,1,6,15,0,0,0,2,1,28,7,0,8,0,1,4,1,2,0,0,1,2,0,1,12,21,5,5,0,12,0,0,0,0,0,1,2,1,5,9,22,0,0,19,10,1,0,15,0,10,5,922.txt
5,13,3,0,6,6,0,0,3,0,13,2,2,1,1,1,19,4,0,11,0,3,0,2,0,11,20,23,5,0,0,4,1,2,0,4,0,0,0,9,4,17,5,4,4,9,0,0,0,2,0,0,5,3,0,0,19,0,0,5,7,1,0,4,3,18,4,924.txt
5,11,0,1,6,6,0,0,0,0,0,0,2,9,0,1,7,4,0,5,0,0,0,2,1,6,3,0,0,0,0,4,1,2,0,4,0,0,0,14,0,17,7,14,9,12,0,0,0,0,0,0,2,3,0,0,0,0,0,5,0,1,0,0,0,0,6,925.txt
5,11,4,1,6,6,0,1,0,16,0,0,2,9,0,1,7,4,0,16,0,0,0,2,1,28,20,0,13,0,1,4,1,2,0,0,1,2,0,14,1,21,6,4,0,12,0,0,0,0,0,1,10,0,0,6,8,0,0,13,11,1,0,3,0,10,5,926.txt
5,11,0,1,6,6,0,1,0,0,13,0,15,3,0,1,13,4,0,16,0,0,0,0,1,29,7,0,18,0,1,4,1,2,0,3,1,2,5,26,14,4,6,5,7,12,0,0,0,5,9,1,6,1,4,6,19,1,0,19,2,1,0,0,3,12,4,928.txt
5,11,0,1,6,6,0,1,0,0,0,0,13,9,1,1,7,4,0,0,0,0,0,2,1,25,7,0,18,0,0,4,1,2,0,3,1,6,5,0,3,6,4,14,19,12,0,0,0,0,0,1,3,1,0,0,0,0,0,4,2,1,0,0,0,4,5,930.txt
5,11,4,1,6,6,0,0,3,13,30,2,2,9,0,1,7,4,0,10,0,10,0,2,1,7,4,0,0,0,0,4,5,2,0,7,0,0,0,13,4,17,5,4,9,12,0,0,0,0,0,0,2,3,0,0,18,0,0,5,0,1,0,14,3,4,5,932.txt
5,12,3,1,6,6,0,0,3,2,28,2,2,9,15,1,7,4,0,9,0,3,0,2,10,6,4,0,5,2,16,4,9,2,0,20,1,5,11,1,1,26,5,5,29,12,4,0,0,0,0,1,2,4,5,4,16,0,0,5,4,1,0,4,0,10,2,935.txt
10,13,0,0,6,9,0,1,5,17,13,0,16,3,0,1,1,3,0,17,0,0,0,0,0,0,17,9,2,18,0,5,0,2,0,3,0,6,5,14,2,3,13,4,7,5,0,0,0,0,4,2,11,1,0,0,3,1,1,3,1,1,0,6,3,7,4,940.txt
5,11,0,1,6,6,0,0,0,0,0,0,2,9,0,1,12,4,0,11,0,0,0,2,1,6,3,0,0,0,0,4,1,2,0,4,0,4,0,0,0,17,4,14,9,12,0,0,0,0,0,0,2,3,0,0,0,0,0,5,0,1,0,12,3,16,5,942.txt
5,12,0,1,6,6,0,0,3,0,26,2,4,9,7,1,7,4,0,11,0,1,0,2,4,6,3,0,5,6,1,4,1,2,0,15,1,3,0,1,1,17,4,5,0,12,0,0,0,7,0,1,2,1,5,1,17,2,0,5,10,1,0,4,7,10,3,944.txt
5,11,0,1,6,6,0,1,0,0,13,0,2,9,0,1,7,4,0,29,0,0,0,2,1,6,3,9,0,0,0,4,1,2,0,4,0,0,0,0,4,17,4,14,7,12,0,0,0,0,0,0,2,3,0,0,14,0,0,18,4,1,0,0,0,4,5,946.txt
5,11,0,1,6,6,0,1,0,17,13,0,2,9,0,1,7,4,0,19,0,0,0,2,1,28,20,17,0,5,0,4,1,2,0,6,1,6,0,25,0,17,5,4,5,12,0,0,0,0,0,0,5,0,0,4,11,0,0,18,4,1,0,0,0,10,5,949.txt
5,11,3,1,6,6,0,0,0,2,29,0,2,9,0,9,7,4,0,5,0,3,0,2,1,11,20,7,0,0,0,4,1,2,0,4,0,0,0,14,4,22,4,8,7,12,4,0,0,2,0,0,2,3,0,0,19,0,0,5,0,1,0,0,7,0,5,951.txt
5,11,6,1,6,6,0,1,0,13,0,0,15,3,0,1,7,4,0,6,0,0,0,2,2,23,7,0,18,0,0,4,5,2,0,3,1,6,5,21,2,21,9,4,3,12,0,0,0,0,0,1,2,2,0,0,3,0,0,4,1,1,0,16,0,10,4,954.txt
5,11,0,1,6,6,0,0,0,0,0,0,2,9,0,1,7,4,0,5,0,28,0,2,1,6,3,0,0,0,0,4,1,2,0,0,1,0,0,0,4,17,4,14,0,12,0,0,0,6,0,0,2,3,0,0,0,0,0,5,0,1,0,0,0,4,5,956.txt
5,11,0,1,6,6,0,1,3,0,13,0,13,9,0,1,7,4,6,0,0,10,0,2,1,28,7,0,18,0,1,4,1,2,0,3,1,2,5,0,12,6,4,14,7,12,0,0,0,0,0,1,2,1,5,2,14,0,0,19,2,1,0,0,0,10,5,959.txt
5,11,0,1,6,6,0,1,0,13,0,0,13,9,0,1,12,4,0,18,0,0,0,2,1,13,7,0,18,0,0,4,1,2,0,3,0,6,2,13,3,21,5,4,0,12,0,0,0,0,0,0,2,0,0,0,13,0,0,13,1,1,0,14,3,4,5,961.txt
5,11,0,1,6,6,0,0,0,0,0,0,2,9,0,1,7,4,0,5,0,0,0,2,1,6,3,0,0,5,0,4,1,2,0,4,0,0,0,0,0,17,4,14,12,12,0,0,0,0,0,0,2,3,0,0,0,0,0,5,0,1,0,0,0,0,5,962.txt
5,11,6,1,6,6,0,0,0,12,0,0,2,9,0,1,7,4,0,21,0,27,0,2,1,6,4,0,0,5,0,4,8,2,0,0,0,4,0,24,4,21,5,3,30,12,0,0,0,0,0,0,5,3,0,0,18,0,0,5,3,1,0,14,0,4,5,964.txt
5,11,4,1,6,6,0,0,3,16,0,2,2,9,0,1,7,4,0,9,0,0,0,2,2,6,4,0,0,6,0,4,1,2,0,0,0,4,0,21,4,21,9,4,3,12,0,0,0,0,0,0,2,3,0,0,16,0,0,5,0,1,0,3,0,4,5,966.txt
5,11,0,1,6,6,0,0,0,0,13,0,2,9,0,1,7,4,0,11,0,0,0,2,1,6,20,9,0,6,0,4,1,2,0,4,0,4,0,4,4,17,5,6,4,12,0,0,0,0,0,0,2,3,0,0,29,0,0,5,0,1,0,6,0,4,5,968.txt
5,11,0,1,6,6,0,0,0,0,0,0,2,9,0,1,7,4,0,5,0,0,0,2,1,6,3,0,0,0,0,4,1,2,0,0,0,0,0,0,4,17,4,14,0,12,0,0,0,2,0,0,2,3,0,0,0,0,0,5,0,1,0,0,0,4,5,970.txt
5,11,3,1,6,6,0,0,0,0,13,0,2,9,0,1,7,4,0,5,0,28,0,2,1,6,3,9,0,13,0,4,1,2,0,6,0,4,0,13,4,17,6,14,7,12,0,0,0,0,0,0,5,3,0,0,10,0,0,5,0,1,0,6,0,4,5,974.txt
5,11,0,1,6,6,0,1,0,0,0,0,2,9,0,1,12,4,0,4,0,0,0,2,1,6,3,0,12,0,0,4,1,2,0,0,0,6,0,0,0,17,4,14,0,12,0,0,0,0,0,0,2,3,0,0,0,0,0,18,4,1,0,6,0,4,5,975.txt
5,11,3,1,6,6,0,1,3,13,26,2,2,9,1,1,7,4,0,9,0,3,0,2,10,11,4,0,5,6,1,4,5,2,0,7,1,0,0,14,4,21,4,4,12,12,0,0,0,5,0,0,2,3,0,0,16,0,0,18,4,1,0,4,8,10,3,979.txt
5,13,6,0,6,6,0,1,3,23,30,2,2,1,1,1,10,4,0,10,0,10,0,2,0,0,20,0,12,5,0,5,8,2,0,7,0,4,0,21,4,17,0,4,3,5,0,0,0,5,0,0,2,3,0,0,18,0,0,5,11,1,0,8,3,4,5,981.txt
5,11,0,1,6,6,0,1,0,0,13,0,16,9,0,1,7,4,0,8,0,0,0,2,1,23,7,9,11,6,0,4,1,2,0,3,1,6,5,13,3,6,5,10,7,12,0,0,0,0,0,1,2,1,0,0,4,0,0,4,2,1,0,5,0,10,5,987.txt
5,5,3,0,6,6,0,0,0,25,29,0,2,1,0,1,4,4,0,10,0,3,0,2,0,0,4,13,0,3,0,5,5,0,0,6,0,4,0,4,4,17,8,4,4,2,0,0,0,0,0,0,5,3,0,0,18,0,0,5,0,1,0,14,0,4,0,989.txt
5,12,0,1,6,6,0,1,0,0,0,0,2,4,1,1,7,4,6,4,5,0,0,2,1,23,3,0,12,16,21,4,1,2,0,17,1,2,3,1,12,17,4,5,2,12,0,0,0,0,0,1,2,1,5,5,0,0,0,10,9,1,2,0,0,10,1,994.txt
5,11,3,1,6,6,0,0,0,0,26,0,2,9,0,1,7,4,0,5,0,3,0,2,1,6,3,0,0,6,0,4,1,2,0,7,0,0,0,18,0,17,6,18,7,12,0,0,0,2,0,0,2,3,0,0,17,0,0,5,0,1,0,6,0,0,7,996.txt
5,11,0,1,7,6,4,8,0,16,13,0,16,9,0,10,11,4,0,24,0,27,0,2,1,13,7,5,8,0,0,4,5,2,0,3,1,6,5,13,2,25,5,4,7,12,0,0,0,0,0,1,2,0,0,0,15,0,0,13,1,1,0,5,0,10,5,998.txt
5,11,3,1,6,6,0,0,3,0,13,2,2,9,7,1,7,4,0,11,0,3,0,2,1,6,20,9,5,5,0,4,1,2,0,4,0,3,0,21,4,17,5,6,4,12,0,0,0,2,0,0,2,3,0,0,10,0,0,5,3,1,0,4,0,4,5,1002.txt
5,11,0,1,6,6,0,0,0,0,26,0,2,9,0,1,7,4,0,5,0,1,0,2,1,6,3,0,0,6,0,4,1,2,0,4,0,4,0,0,4,17,4,14,18,12,0,0,0,2,0,0,2,3,0,0,17,0,0,5,0,1,0,5,2,17,3,1005.txt
5,11,0,1,6,6,0,0,3,0,0,0,2,9,0,1,7,4,0,5,0,1,0,2,1,7,3,0,0,0,0,4,1,2,0,4,1,4,0,0,4,17,4,14,0,12,0,0,0,0,0,0,5,3,0,0,0,0,0,5,11,1,0,6,2,10,5,1008.txt
5,11,0,1,6,6,0,1,3,2,30,0,2,9,0,1,7,4,6,29,0,17,0,2,1,28,20,8,13,0,4,4,1,2,0,4,1,2,0,13,1,12,1,4,7,12,0,0,0,0,0,1,2,0,0,2,19,0,0,10,4,1,0,0,3,10,5,1010.txt
5,11,0,1,6,6,0,0,3,0,0,0,2,9,0,1,7,4,0,23,0,0,0,2,2,6,3,0,0,5,0,4,1,2,0,4,1,3,0,0,4,17,4,14,17,12,0,0,0,0,0,0,5,3,0,0,10,0,0,18,10,1,0,5,0,10,5,1013.txt
5,11,0,1,6,6,0,0,0,14,13,2,2,9,0,1,7,4,0,11,0,0,0,2,6,6,4,9,5,0,0,4,1,2,0,6,0,0,0,23,4,17,5,4,4,12,0,0,0,0,0,0,2,3,0,0,19,0,0,5,0,1,0,4,0,4,6,1015.txt
5,11,4,1,6,6,0,0,3,23,30,2,2,9,0,1,7,4,0,9,0,8,0,2,10,6,20,0,5,6,0,4,1,2,0,0,1,3,0,21,4,21,9,14,3,12,0,0,0,0,0,0,5,3,0,0,16,0,0,5,10,1,0,10,0,4,7,1018.txt
9,10,0,1,1,6,4,0,3,2,29,0,2,9,0,16,5,4,1,10,0,27,0,2,20,30,4,5,27,2,15,4,9,2,0,20,2,0,4,1,1,21,8,5,21,13,5,0,0,7,0,0,2,3,5,9,15,0,0,10,4,1,0,14,5,10,2,1020.txt
5,5,0,0,6,6,0,0,3,2,29,2,2,1,1,5,3,4,0,11,0,0,0,2,0,0,0,26,5,24,0,5,5,0,0,4,0,0,0,13,4,22,14,4,7,2,0,0,0,7,0,0,2,3,0,0,24,0,0,5,15,1,0,4,0,9,0,1022.txt
5,11,4,1,6,6,0,0,0,0,26,0,2,9,0,1,7,4,0,9,0,0,0,2,1,6,20,0,0,6,0,4,1,2,0,0,0,3,0,14,4,21,4,8,0,12,0,0,0,0,0,0,2,3,0,0,16,0,0,5,3,1,0,5,3,4,3,1025.txt
9,11,0,1,6,6,0,0,3,0,0,2,2,9,0,1,7,4,0,5,0,1,0,2,1,7,3,0,0,0,0,4,1,2,0,4,1,0,0,0,4,17,8,14,19,12,0,0,0,0,0,0,2,3,0,0,0,0,0,5,0,1,0,4,2,17,5,1027.txt
5,11,3,1,6,6,0,7,3,0,13,2,2,9,0,10,12,4,0,5,0,3,0,2,1,6,20,5,0,0,0,4,1,2,0,4,0,0,0,21,4,22,9,4,3,12,0,0,0,7,0,0,2,3,0,0,19,0,0,5,7,1,0,4,0,4,4,1030.txt
5,11,0,1,6,6,0,0,0,0,0,2,2,9,0,1,7,4,0,11,0,17,0,2,1,6,13,0,5,0,0,4,1,2,0,0,1,4,0,14,4,17,4,8,0,12,0,0,0,0,0,0,5,3,0,0,14,0,0,5,0,1,0,10,0,1,5,1036.txt
5,11,0,1,6,6,0,0,0,0,0,0,2,9,0,1,7,4,0,5,0,11,0,2,1,6,3,0,0,0,0,4,1,2,0,7,0,4,0,0,4,17,4,14,18,12,0,0,0,2,0,0,2,3,0,0,14,0,0,5,0,1,0,6,0,4,5,1041.txt
5,11,4,1,6,6,0,0,0,0,26,2,2,9,0,1,7,4,0,10,0,0,0,2,2,6,8,0,0,6,0,4,1,2,0,0,1,3,0,27,4,21,4,9,0,12,0,0,0,2,0,0,5,3,0,0,1,0,0,5,10,1,0,10,3,4,7,1043.txt
5,11,3,1,6,6,0,0,0,2,29,0,2,9,0,1,7,4,0,10,0,3,0,2,1,6,20,0,0,6,0,4,1,2,0,7,0,0,0,13,0,17,6,4,11,12,0,0,0,2,0,0,2,3,0,0,1,0,0,5,0,1,0,6,0,4,5,1045.txt
5,11,0,1,6,6,0,0,0,0,13,0,2,9,0,1,7,4,0,5,0,0,0,2,1,6,3,9,0,0,0,4,1,2,0,4,1,0,0,14,0,17,4,14,7,12,0,0,0,0,0,0,2,3,0,0,0,0,0,18,4,1,0,0,0,1,5,1046.txt
9,11,0,1,6,6,0,0,3,0,13,2,2,9,1,1,12,4,0,5,0,0,0,2,15,7,3,11,5,0,0,4,1,2,0,4,0,0,0,13,4,17,8,14,7,12,0,0,0,5,0,0,2,3,0,0,0,0,0,5,5,1,0,4,0,4,4,1048.txt
5,11,0,1,6,6,0,0,3,0,26,2,2,9,0,1,7,4,0,5,0,0,0,2,10,6,3,0,5,6,0,4,1,2,0,4,1,4,0,0,4,17,4,14,7,12,0,0,0,0,0,0,5,3,0,0,1,0,0,5,0,1,0,10,0,4,7,1051.txt
5,11,0,1,6,6,0,0,0,18,0,0,2,9,0,1,7,4,0,11,0,17,0,2,1,6,20,0,0,4,0,4,1,2,0,4,0,0,0,13,0,17,5,4,8,12,0,0,0,0,0,0,2,3,0,0,25,0,0,5,4,1,0,0,0,0,5,1054.txt
5,11,0,1,6,6,0,0,3,16,26,2,2,9,5,1,12,4,0,5,0,0,0,2,10,6,20,9,5,3,0,4,1,2,0,4,0,13,0,25,4,17,5,6,7,12,0,0,0,1,0,0,2,3,0,0,1,0,0,5,3,1,0,4,0,4,3,1057.txt
5,11,4,1,6,6,0,0,0,13,0,0,2,9,0,1,7,4,0,9,0,0,0,2,1,6,4,0,0,0,0,4,5,2,0,12,1,0,0,13,0,21,5,4,19,12,0,0,0,0,0,0,5,3,0,0,18,0,0,5,0,1,0,14,3,16,5,1059.txt
5,11,0,1,6,6,0,0,0,0,0,0,2,9,0,1,7,4,0,5,0,17,0,2,1,6,3,0,0,0,0,4,1,2,0,7,1,0,0,0,0,17,4,14,7,12,0,0,0,0,0,0,2,3,0,0,0,0,0,5,0,1,0,0,0,0,5,1060.txt
5,11,0,1,6,6,0,0,3,0,0,2,2,9,1,1,7,4,0,11,0,0,0,2,2,6,3,0,5,5,1,4,1,2,0,0,1,0,0,14,4,17,6,14,0,12,0,0,0,0,0,0,2,3,0,0,10,0,0,5,0,1,0,4,0,10,5,1064.txt
5,11,0,1,6,6,0,0,0,0,0,0,2,9,0,1,12,4,0,5,0,0,0,2,1,6,3,0,0,0,0,4,1,2,0,0,0,3,0,0,0,17,4,14,0,12,0,0,0,0,0,0,2,3,0,0,0,0,0,5,3,1,0,5,3,16,5,1069.txt
5,11,0,1,6,6,0,0,3,0,0,2,2,9,0,9,7,4,0,5,0,17,0,2,2,6,3,0,5,13,0,4,1,2,0,0,0,0,0,0,4,17,4,14,0,12,0,0,0,0,0,0,2,3,0,0,11,0,0,5,0,1,0,4,0,3,9,1071.txt
5,11,0,1,6,6,0,0,0,0,0,2,2,9,0,1,12,4,0,5,0,15,0,2,1,6,3,0,0,0,0,4,1,2,0,0,0,3,0,0,4,17,4,14,0,12,0,0,0,0,0,0,5,3,0,0,0,0,0,5,3,1,0,5,2,17,5,1073.txt
5,5,3,0,6,6,0,7,3,19,13,2,2,1,1,10,18,4,0,5,0,3,0,2,0,6,20,4,5,0,0,5,1,2,0,8,0,4,0,2,4,22,9,10,3,6,0,0,0,2,0,0,2,3,0,0,19,0,0,5,7,1,0,4,0,4,8,1075.txt
5,11,0,1,6,6,0,0,0,16,0,0,2,9,0,1,7,4,0,9,0,17,0,2,1,6,20,0,0,0,1,4,1,2,0,30,1,3,0,13,0,21,5,4,0,12,0,0,0,0,0,0,5,3,0,0,18,0,0,5,10,1,0,15,0,10,5,1076.txt
5,11,0,1,6,6,0,0,0,0,13,0,2,9,0,1,7,4,0,10,0,0,0,2,1,6,20,0,0,0,0,4,1,2,0,7,1,0,0,11,0,17,5,7,7,12,0,0,0,0,0,0,2,3,0,0,19,0,0,18,4,1,0,6,0,10,5,1078.txt
5,11,0,1,6,6,0,1,0,0,0,0,2,9,7,1,7,4,0,29,0,1,0,2,1,6,3,0,0,0,0,4,1,2,0,30,1,3,0,28,4,17,4,17,0,12,0,0,0,0,0,0,2,3,0,0,14,0,0,18,3,1,0,5,7,10,5,1080.txt
5,11,4,1,6,6,0,0,3,13,26,2,2,9,2,9,7,4,0,22,0,27,0,2,10,6,4,0,5,6,0,4,5,2,0,0,0,14,0,4,4,21,5,4,4,12,0,0,0,2,0,0,5,3,0,0,16,0,0,5,0,1,0,10,0,4,7,1082.txt
5,5,0,0,6,6,0,0,0,0,0,0,2,1,0,8,4,4,0,5,0,0,0,2,0,0,3,0,0,0,0,5,1,2,0,0,0,0,0,0,0,17,14,14,0,5,0,0,0,6,0,0,2,3,0,0,0,0,0,5,0,1,0,0,0,4,0,1084.txt
9,11,4,1,6,6,0,1,3,25,13,2,13,9,0,1,7,4,0,15,0,1,0,2,1,23,7,0,18,4,4,4,5,2,0,3,1,2,5,13,3,21,8,4,7,12,0,0,0,0,0,1,2,2,0,0,18,0,0,8,2,1,0,14,8,10,5,1086.txt
5,11,0,1,6,6,0,7,0,0,26,0,2,9,1,9,7,4,0,10,0,0,0,2,1,6,13,0,0,6,0,4,1,2,0,0,0,0,0,4,4,22,5,18,4,12,0,0,0,6,0,0,2,3,0,0,17,0,0,5,5,1,0,6,0,4,4,1088.txt
5,11,0,1,6,6,0,0,0,0,0,2,2,9,0,1,7,4,0,11,0,8,0,2,1,6,20,0,0,5,1,4,1,2,0,15,1,0,0,1,1,17,5,5,4,12,0,0,0,0,0,0,2,3,5,6,10,0,0,21,4,1,0,4,0,10,5,1090.txt
10,13,4,0,6,9,0,1,5,13,14,0,11,3,0,1,1,3,0,6,0,0,0,3,0,0,17,0,2,1,0,5,0,0,0,3,0,6,1,21,3,21,1,4,3,2,0,0,0,0,3,2,1,1,0,0,18,1,1,3,1,1,0,14,0,4,4,1093.txt
5,11,0,1,6,6,0,1,0,0,0,0,13,9,0,1,7,4,0,4,0,0,0,2,1,23,21,0,18,0,0,4,1,2,0,3,0,6,5,22,3,9,5,14,4,12,0,0,0,0,0,1,2,0,0,0,0,0,0,13,1,1,0,12,0,0,5,1094.txt
7,13,0,0,6,6,0,1,3,12,13,0,16,3,1,1,1,4,0,7,0,0,0,0,0,0,7,9,18,8,0,5,5,2,0,3,0,6,5,4,3,21,5,4,4,6,0,0,0,2,5,1,9,1,0,0,18,1,0,3,1,1,0,14,5,17,4,1096.txt
5,11,0,1,6,6,0,0,0,0,0,0,2,9,0,1,7,4,6,4,0,0,0,2,1,6,3,3,14,0,1,4,1,2,0,4,1,9,0,0,0,17,4,14,19,12,0,0,0,0,0,0,2,5,0,9,0,0,0,10,11,1,0,6,0,10,9,1101.txt
5,11,4,1,6,6,0,0,3,0,0,2,2,9,0,1,7,4,0,5,0,17,0,2,2,6,3,0,5,6,0,4,1,2,0,0,0,4,0,13,4,17,6,9,0,12,0,0,0,0,0,0,2,3,0,0,29,0,0,5,14,1,0,4,0,9,5,1105.txt
5,11,0,1,6,6,0,0,0,20,13,2,2,9,0,10,12,4,0,5,0,28,0,2,1,6,20,5,0,0,0,4,1,2,0,4,0,0,0,13,4,17,6,4,7,12,0,0,0,2,0,0,5,3,0,0,19,0,0,5,0,1,0,6,0,4,5,1106.txt
5,11,3,1,6,6,0,0,3,2,29,2,2,9,0,10,7,2,0,11,0,3,0,2,1,30,4,5,0,6,0,4,8,2,0,6,2,0,0,1,1,17,8,5,20,12,2,1,0,0,0,0,5,3,5,3,1,0,4,5,15,1,0,10,0,10,3,1108.txt
9,11,0,1,6,6,0,1,0,0,0,0,13,3,0,1,12,4,0,0,0,1,0,2,1,13,7,0,18,5,0,4,1,2,0,3,0,6,5,0,3,24,1,14,0,12,0,0,2,0,0,1,2,1,0,0,10,0,0,7,1,1,0,0,2,14,5,1109.txt
5,11,0,1,6,6,0,0,0,0,0,0,2,9,0,1,7,4,0,5,0,0,0,2,1,6,3,0,0,6,0,4,1,2,0,4,1,20,0,0,0,17,4,14,0,12,0,0,0,0,0,0,2,3,0,1,5,0,0,18,11,1,0,6,0,10,5,1114.txt
5,11,4,1,6,6,0,1,3,18,0,2,15,9,1,1,7,4,0,15,0,0,0,2,1,23,7,0,18,5,0,4,5,2,0,3,0,6,5,13,3,21,5,4,0,12,0,0,0,5,0,1,3,1,0,0,24,0,0,8,1,1,0,7,0,4,4,1117.txt
5,13,3,0,6,6,0,0,0,0,0,0,2,1,0,1,4,4,0,11,0,3,0,2,0,0,3,0,0,0,0,5,1,0,0,7,0,0,0,0,4,17,0,14,18,2,0,0,0,0,0,0,2,3,0,0,14,0,0,5,0,1,0,0,0,4,0,1118.txt
5,11,0,1,6,6,0,1,3,0,0,0,13,9,0,1,12,4,0,27,0,1,0,2,1,5,21,0,12,0,0,4,1,2,0,3,0,6,8,0,2,16,8,14,0,12,0,0,0,0,0,0,2,5,0,0,14,0,0,23,1,1,0,0,2,14,5,1121.txt
10,11,0,1,6,9,0,1,5,0,14,0,15,3,0,1,1,3,0,0,0,0,0,3,1,29,17,0,2,15,0,4,7,2,0,5,1,6,1,0,3,2,4,14,0,12,0,0,0,0,9,2,1,1,0,0,11,1,1,3,1,1,0,5,3,2,4,1122.txt
5,11,0,1,6,6,0,0,0,0,0,0,2,9,0,1,7,4,0,11,0,0,0,2,1,6,3,0,0,0,0,4,1,2,0,4,0,0,0,0,4,17,4,18,0,12,0,0,0,2,0,0,5,3,0,0,14,0,0,5,0,1,0,0,0,4,5,1124.txt
5,11,3,1,6,6,0,0,0,14,13,0,2,9,2,10,7,4,0,11,0,28,0,2,1,7,4,5,0,0,0,4,1,2,0,4,1,0,0,13,0,17,5,4,7,12,0,0,0,6,0,0,2,3,0,0,19,0,0,5,0,1,0,0,0,0,5,1126.txt
9,11,0,1,6,6,0,0,3,2,29,2,2,9,1,1,12,4,0,10,0,1,0,2,10,19,4,0,0,0,0,4,5,2,0,30,0,10,0,7,4,21,8,4,4,12,0,0,0,1,0,0,2,3,0,0,18,0,0,5,7,1,0,4,6,17,5,1128.txt
5,11,0,1,6,6,0,1,0,0,0,0,2,9,0,1,7,4,0,18,0,0,0,2,1,28,20,0,0,5,0,4,1,2,0,0,1,6,0,28,0,21,4,7,0,12,0,0,0,0,0,0,10,0,0,6,30,0,0,16,4,1,0,3,0,10,5,1130.txt
5,11,0,1,6,6,0,0,0,18,13,0,2,9,0,1,7,4,0,11,0,11,0,2,1,6,20,10,0,0,0,4,1,2,0,6,1,0,0,13,0,17,5,4,7,12,0,0,0,0,0,0,2,3,0,0,19,0,0,5,0,1,0,0,0,10,5,1135.txt
5,11,3,1,6,6,0,0,0,13,13,0,2,9,0,10,7,4,0,11,0,28,0,2,1,6,4,5,0,0,0,4,5,2,0,4,1,0,0,9,0,17,5,4,4,12,0,0,0,2,0,0,2,3,0,0,12,0,0,5,7,1,0,2,0,4,5,1136.txt
9,11,0,1,6,6,0,1,0,0,26,0,15,1,0,1,12,4,0,24,0,1,0,2,1,13,7,17,6,3,0,4,1,2,0,3,0,6,2,13,3,25,8,6,7,12,0,0,0,0,0,0,2,0,0,0,1,0,0,25,1,1,0,5,7,17,7,1137.txt
5,11,4,1,6,6,0,0,0,0,0,0,2,9,0,1,7,4,1,10,0,0,0,2,1,6,20,0,16,6,1,4,1,2,0,4,1,4,0,13,1,17,5,4,16,12,0,0,0,0,0,0,5,3,0,1,6,0,0,10,0,1,0,6,0,10,5,1139.txt
5,11,0,1,6,6,0,0,0,10,13,0,2,9,0,1,7,4,1,10,0,0,0,2,1,2,4,26,15,0,1,4,1,2,0,6,1,0,0,1,1,17,9,5,3,12,0,0,0,0,0,0,2,3,5,9,18,0,0,10,4,1,0,14,0,10,5,1141.txt
5,11,0,1,6,6,0,0,3,2,30,2,2,9,15,10,7,4,0,9,0,21,0,2,10,2,4,6,5,6,0,4,3,2,0,6,1,3,0,21,6,21,5,19,20,12,4,5,0,2,0,0,2,3,0,3,16,0,0,5,10,1,0,4,5,10,3,1143.txt
5,11,3,1,6,6,0,0,0,0,13,0,2,9,0,1,7,4,0,5,0,4,0,2,1,11,14,9,0,0,0,4,1,2,0,6,0,4,0,2,4,17,9,4,3,12,0,0,0,2,0,0,2,3,0,0,14,0,0,5,0,1,0,5,0,4,5,1147.txt
5,11,3,1,6,6,0,0,0,0,0,0,2,9,0,1,7,4,0,5,0,3,0,2,1,7,20,0,0,5,0,4,1,2,0,7,1,0,0,2,0,17,9,13,3,12,0,0,0,2,0,0,2,3,0,0,11,0,0,5,0,1,0,0,0,0,5,1149.txt
9,13,3,0,6,6,0,0,3,11,13,2,2,1,1,1,19,4,0,11,0,3,0,2,0,2,4,9,5,0,0,4,1,2,0,4,0,0,0,25,4,17,8,6,5,8,0,0,0,0,0,0,2,3,0,0,12,0,0,5,0,1,0,4,3,4,5,1151.txt
5,11,0,1,6,6,0,0,0,0,0,0,2,9,0,1,12,4,0,5,0,0,0,2,1,6,3,0,0,0,0,4,1,2,0,4,1,13,0,0,0,17,4,14,0,12,0,0,0,0,0,0,5,3,0,0,0,0,0,5,3,1,0,5,3,10,5,1152.txt
5,11,0,1,6,6,0,0,0,0,0,0,2,9,0,1,7,4,0,10,0,0,0,2,1,6,13,0,0,0,0,4,1,2,0,0,0,0,0,0,0,17,4,10,0,12,0,0,0,0,0,0,2,3,0,0,14,0,0,5,0,1,0,0,0,0,5,1156.txt
5,11,3,1,6,6,0,0,0,2,29,0,2,9,0,1,7,4,0,10,0,3,0,2,1,30,4,9,0,6,0,4,5,2,0,6,0,0,0,2,0,21,1,4,3,12,0,0,0,2,0,0,2,3,0,0,21,0,0,5,0,1,0,14,0,0,5,1158.txt
5,11,4,1,6,6,0,0,3,2,30,2,2,9,0,1,7,4,0,9,0,0,0,2,2,6,4,0,0,0,0,4,5,2,0,0,1,0,0,10,4,21,5,4,4,12,0,0,0,0,0,0,2,3,0,0,18,0,0,5,0,1,0,4,0,4,5,1161.txt
5,11,0,1,6,6,0,0,0,0,0,0,2,9,0,1,7,4,0,11,0,17,0,2,1,6,3,0,0,0,0,4,1,2,0,15,1,0,0,0,4,17,4,14,0,12,0,0,0,0,0,0,2,3,0,0,0,0,0,5,0,1,0,0,0,1,5,1166.txt
5,11,6,1,6,6,0,1,0,0,0,0,2,9,0,1,12,4,0,18,0,0,0,2,1,7,5,0,12,0,0,4,1,2,0,4,0,6,0,9,4,21,5,7,4,12,0,0,0,0,0,0,2,5,0,0,19,0,0,18,11,1,0,6,0,4,5,1168.txt
9,12,5,1,7,6,0,8,3,16,3,2,6,4,5,16,7,4,8,6,8,18,0,2,10,3,7,5,13,16,11,4,3,2,0,10,1,18,3,1,1,26,8,5,21,12,0,0,0,5,0,1,2,4,5,5,1,3,0,19,9,1,2,8,4,10,1,1169.txt
5,11,4,1,6,6,0,1,3,0,26,2,15,3,7,1,8,4,0,0,0,0,0,2,15,3,7,0,6,6,0,4,1,2,0,3,1,6,5,0,3,5,4,14,0,12,0,0,0,5,0,1,10,1,0,1,17,0,0,3,2,1,0,9,0,10,3,1171.txt
5,11,3,1,6,6,0,0,0,0,0,0,2,9,0,1,12,4,0,5,0,28,0,2,1,6,3,0,0,5,0,4,1,2,0,4,0,0,0,0,4,17,4,0,0,12,0,0,0,0,0,0,2,3,0,0,23,0,0,5,0,1,0,0,0,4,5,1175.txt
5,11,0,1,6,6,0,0,0,13,13,0,2,9,0,1,7,4,0,24,0,0,0,2,1,5,4,9,15,0,1,4,5,2,0,6,1,0,0,25,0,17,5,4,7,12,0,0,0,0,0,0,2,5,0,4,3,0,0,18,4,1,0,16,3,10,5,1177.txt
5,11,3,1,6,6,0,0,3,16,13,0,2,9,0,1,7,4,1,27,0,28,0,2,1,28,20,8,16,0,1,4,1,2,0,4,1,0,0,1,1,17,9,5,3,12,0,0,0,2,0,1,2,1,5,4,19,0,0,10,11,1,0,6,0,10,5,1179.txt
5,11,0,1,6,6,0,0,3,0,0,2,2,9,0,9,7,4,0,5,0,0,0,2,1,6,3,0,5,0,0,4,1,2,0,7,0,0,0,21,4,22,9,14,3,12,0,0,0,6,0,0,2,3,0,0,0,0,0,5,0,1,0,4,0,4,5,1183.txt
5,11,0,1,6,6,0,9,0,0,26,0,2,25,0,1,7,4,0,7,0,0,0,2,1,28,20,0,0,6,0,4,1,2,0,4,1,2,0,9,1,29,5,10,4,12,0,7,0,0,0,8,10,1,5,1,1,0,4,4,10,1,0,5,0,10,3,1184.txt
5,11,6,1,6,6,0,0,0,18,26,0,2,25,0,1,7,1,0,18,0,0,0,2,1,6,20,0,0,6,0,4,5,2,0,0,1,17,0,1,1,21,5,5,0,12,0,6,0,0,0,0,2,5,5,6,16,0,2,21,10,1,0,15,0,10,3,1190.txt
5,11,4,1,6,6,0,0,3,13,13,0,2,9,1,1,7,4,1,10,0,0,0,2,6,7,4,13,15,0,1,4,8,2,0,6,1,0,0,1,1,17,9,5,3,12,0,0,0,0,0,0,5,3,5,2,3,0,0,10,4,1,0,2,0,10,5,1192.txt
5,11,4,1,6,6,0,0,0,16,0,0,2,9,0,1,7,4,0,9,0,0,0,2,2,6,20,23,5,0,0,4,1,2,0,0,1,0,0,13,4,21,10,4,0,12,0,0,0,0,0,0,2,3,0,0,19,0,0,5,0,1,0,0,3,18,9,1194.txt
10,11,4,1,6,9,0,1,5,0,14,2,13,3,0,1,1,3,0,8,0,0,0,3,1,29,17,0,2,15,0,4,7,2,0,5,1,6,1,12,3,21,5,4,19,12,0,0,0,5,9,7,1,1,0,0,30,1,1,3,1,1,0,1,0,2,4,1196.txt
10,13,0,1,6,6,0,1,3,18,13,2,15,3,0,1,1,3,0,8,0,0,0,0,0,3,7,9,18,15,0,4,0,2,0,3,0,6,5,25,3,3,5,4,5,11,0,0,0,0,8,1,2,1,0,0,19,1,1,3,1,1,0,0,7,17,5,1197.txt
9,11,0,1,6,6,0,0,3,0,7,2,2,9,0,1,7,4,0,5,0,5,0,2,1,19,3,0,0,13,0,4,1,2,0,7,0,0,0,0,4,17,8,14,14,12,0,0,0,2,0,0,2,3,0,0,10,0,0,5,6,1,0,4,0,4,10,1199.txt
5,13,0,0,6,6,0,0,3,9,13,2,2,1,0,1,3,4,0,10,0,27,0,2,0,0,0,9,5,5,0,5,8,0,0,6,0,0,0,3,6,17,0,2,4,2,4,0,0,2,0,0,2,3,0,0,18,0,0,5,7,1,0,4,0,7,0,1201.txt
5,11,0,1,6,6,0,0,3,0,0,2,2,9,1,1,7,4,0,11,0,0,0,2,1,6,12,0,5,5,0,4,1,2,0,4,0,8,0,14,4,17,4,7,12,12,0,0,0,0,0,0,2,3,0,0,10,2,0,5,0,1,0,4,7,17,5,1203.txt
5,11,0,1,6,6,0,0,0,0,26,2,2,9,0,9,7,4,0,5,0,0,0,2,1,6,3,0,0,6,0,4,1,2,0,4,0,3,0,0,4,22,4,14,0,12,0,0,0,9,0,0,2,3,0,0,17,0,0,5,3,1,0,5,3,4,3,1205.txt
11,11,3,1,6,6,0,7,3,23,29,2,2,9,1,9,5,4,0,11,0,1,0,2,10,19,4,1,5,6,0,3,5,2,0,6,5,0,4,1,1,18,8,5,4,16,0,0,1,8,0,0,2,3,5,4,2,0,0,5,0,1,0,4,8,5,5,1207.txt
5,11,3,1,6,6,0,0,3,19,0,0,2,9,0,1,7,4,0,5,0,3,0,2,4,6,20,0,5,5,0,4,1,2,0,7,0,0,0,2,4,17,9,14,3,12,0,0,0,0,0,0,2,3,0,0,11,0,0,5,0,1,0,4,0,4,5,1211.txt
5,11,0,1,6,6,0,0,3,0,0,2,2,9,1,1,7,4,0,5,0,13,0,2,1,6,3,0,5,0,0,4,1,2,0,4,0,0,0,0,4,17,4,14,12,12,0,0,0,2,0,0,2,3,0,0,0,0,0,5,0,1,0,4,0,4,5,1214.txt
5,11,0,1,6,6,0,0,3,0,7,2,2,9,1,1,7,4,0,5,0,17,0,2,1,6,3,0,5,0,0,4,1,2,0,4,0,4,0,0,4,17,4,14,17,12,0,0,0,2,0,0,2,3,0,0,0,0,0,5,0,1,0,4,0,4,5,1216.txt
5,11,0,1,6,6,0,1,0,0,0,0,13,1,0,1,12,4,0,29,0,0,0,2,1,13,21,0,12,0,0,4,1,2,0,3,0,6,2,0,3,11,4,11,9,12,0,0,0,5,0,0,5,0,0,0,0,0,0,15,1,1,0,6,0,4,5,1217.txt
5,11,0,1,6,6,0,0,0,0,7,0,2,9,0,1,7,4,0,5,0,28,0,2,1,11,3,9,0,0,0,4,1,2,0,4,1,4,0,13,0,17,6,18,7,12,0,0,0,2,0,0,2,3,0,0,14,0,0,5,0,1,0,12,0,10,5,1219.txt
11,11,4,1,6,6,0,1,0,2,17,0,13,3,0,1,8,4,0,7,0,0,0,2,1,13,7,18,18,7,0,4,5,2,0,3,0,6,5,7,2,21,1,4,4,12,0,0,0,0,0,1,2,1,0,0,8,0,0,7,1,1,0,2,0,0,5,1221.txt
5,11,0,1,6,6,0,0,3,13,29,0,2,9,0,1,7,4,0,10,0,0,0,2,1,22,4,0,16,0,4,4,8,2,0,30,1,19,0,1,1,17,8,5,4,12,0,0,0,1,0,0,2,3,5,4,18,0,0,10,11,1,0,14,5,10,10,1225.txt
5,11,3,1,6,6,0,0,0,0,26,2,2,9,0,1,7,4,0,5,0,3,0,2,1,6,3,0,5,6,0,4,1,2,0,7,0,3,0,0,4,17,4,14,14,12,0,0,0,6,0,0,5,3,0,0,28,0,0,5,3,1,0,10,0,4,3,1228.txt
5,11,4,1,6,6,0,1,3,13,0,2,2,9,0,1,7,4,0,23,0,0,0,2,2,28,4,0,18,0,0,4,1,2,0,7,1,2,0,5,4,21,5,4,4,12,0,0,0,0,0,1,2,1,0,6,22,0,0,15,4,1,0,8,3,10,5,1230.txt
5,11,3,1,6,8,0,0,0,0,26,0,2,9,0,1,7,4,0,5,0,3,0,2,1,6,3,0,0,6,0,4,1,2,0,4,1,13,0,0,4,17,4,14,18,12,0,0,0,2,0,0,5,3,0,1,17,0,0,5,10,1,0,5,0,10,7,1234.txt
5,11,0,1,6,6,0,1,0,0,0,0,2,9,0,1,7,4,0,4,0,0,0,2,1,6,3,0,3,0,1,4,1,2,0,0,1,4,0,0,0,17,4,14,0,12,0,0,0,0,0,0,2,3,0,0,0,0,0,18,11,1,0,12,0,10,5,1237.txt
5,11,0,1,6,6,0,1,0,0,0,0,2,9,0,1,7,4,0,6,0,0,0,2,1,28,12,0,25,0,1,4,1,2,0,4,1,2,0,1,1,29,9,5,3,12,0,0,0,0,0,1,10,1,5,1,19,0,0,14,10,1,0,5,0,10,5,1239.txt
11,12,3,1,6,6,0,7,3,2,29,2,2,9,1,9,5,4,1,10,0,3,0,2,10,22,4,22,29,6,4,4,5,2,0,20,2,4,4,1,1,18,8,5,21,16,0,0,1,2,0,1,2,2,5,9,1,0,0,10,14,1,0,4,0,5,3,1241.txt
11,13,0,0,6,6,0,1,0,2,15,0,13,3,0,1,13,4,0,7,0,21,0,0,0,0,7,0,18,0,0,5,5,3,0,3,1,6,5,9,2,4,8,4,4,3,0,0,0,0,4,1,2,1,0,0,3,1,0,3,1,1,0,16,7,2,12,1243.txt
5,12,4,1,6,6,0,3,0,13,0,0,2,9,0,1,7,4,0,7,0,21,0,2,1,3,4,0,0,0,0,4,5,2,0,17,1,2,3,1,1,21,5,5,4,12,0,0,0,0,0,1,0,2,5,4,18,0,0,3,4,1,0,14,8,10,5,1245.txt
5,11,0,1,6,6,0,1,0,16,0,0,2,9,0,1,7,1,0,6,0,0,0,2,1,23,7,0,8,0,1,4,1,2,0,3,1,2,5,21,0,21,5,4,3,12,0,0,0,0,0,1,2,1,0,6,19,0,0,14,2,1,0,15,0,10,5,1249.txt
5,11,0,1,6,6,0,0,0,0,0,2,2,9,2,1,7,4,0,5,0,17,0,2,2,6,3,0,0,0,1,4,1,2,0,0,1,0,0,0,4,17,4,14,0,12,0,0,0,2,0,0,2,3,0,0,0,2,0,5,0,1,0,6,0,10,5,1251.txt
5,11,5,1,1,6,4,0,3,8,26,0,2,9,0,9,7,4,0,21,0,27,0,2,4,30,4,9,5,6,4,4,8,2,0,4,2,3,0,2,1,21,8,3,3,12,0,0,0,0,0,0,2,3,0,3,16,0,0,5,10,1,0,13,0,10,3,1254.txt
10,11,4,1,6,6,0,1,0,19,0,0,15,3,0,1,1,3,9,15,0,1,0,0,1,3,7,0,8,25,4,4,7,2,0,3,1,2,5,13,2,21,8,6,0,12,0,0,0,5,9,1,6,1,0,2,19,1,1,19,2,1,0,5,7,2,4,1255.txt
16,13,3,0,6,6,0,1,3,2,24,0,11,1,0,1,3,4,0,26,0,21,0,2,0,0,23,9,8,0,0,5,1,0,0,3,0,6,8,25,3,14,1,4,5,2,0,0,0,5,0,0,2,3,0,0,19,0,0,23,1,1,0,5,7,13,4,1267.txt
9,11,0,1,6,6,0,0,0,13,26,0,2,9,0,1,7,4,0,10,0,1,0,2,1,7,4,0,0,6,0,4,1,2,0,7,1,3,0,1,1,17,1,5,7,12,0,5,0,0,0,0,5,3,5,4,1,0,4,5,10,1,0,13,7,10,3,1271.txt
9,12,3,1,6,6,0,3,0,14,13,0,2,6,0,10,7,4,0,6,0,3,0,2,1,15,4,5,25,2,22,4,1,2,0,11,1,2,3,1,1,29,1,5,21,12,0,0,0,1,0,1,0,1,3,4,18,0,0,9,9,1,0,6,5,10,2,1274.txt
10,13,3,0,6,9,0,11,5,20,14,0,15,11,0,7,1,3,0,17,0,3,0,3,0,0,17,19,2,10,0,5,0,2,0,5,0,6,1,14,3,2,12,11,26,5,0,0,0,0,4,2,1,1,0,0,17,1,1,3,1,1,0,0,0,8,4,1276.txt
9,11,4,1,6,6,0,0,3,2,29,2,2,9,0,9,7,4,0,9,0,27,0,2,1,30,4,0,27,6,4,4,4,2,0,7,2,0,0,1,1,21,8,5,4,12,4,0,0,0,0,0,2,3,5,3,18,0,0,10,0,1,0,4,0,10,5,1278.txt
5,11,0,1,6,6,0,1,0,19,0,0,2,9,0,1,7,4,0,19,0,1,0,2,1,27,21,0,18,0,0,4,1,2,0,3,1,6,5,13,0,12,6,4,0,12,0,0,0,0,0,1,2,0,0,0,19,0,0,14,2,1,0,0,7,10,5,1280.txt
5,12,4,1,6,6,0,3,3,13,26,2,2,9,0,1,7,4,0,7,0,0,0,2,1,3,4,0,0,6,0,4,5,2,0,17,1,2,3,1,1,21,5,5,29,12,0,3,0,0,0,13,10,1,5,6,16,0,0,3,4,1,0,13,0,10,3,1283.txt
5,12,3,1,6,0,0,1,3,2,2,2,13,15,0,12,13,10,6,6,0,21,0,0,15,29,17,10,2,6,1,4,7,2,0,28,1,2,6,26,13,20,9,5,21,0,0,0,0,5,10,1,6,4,1,7,18,1,0,1,2,2,0,7,4,11,5,1285.txt
5,11,6,1,6,6,0,1,0,13,0,0,2,9,0,1,7,4,0,18,0,27,0,2,1,13,21,0,12,5,0,4,5,2,0,0,0,6,0,13,0,21,5,4,0,12,0,0,0,0,0,0,2,5,0,0,18,0,0,23,4,1,0,14,8,13,5,1287.txt
5,5,3,0,6,6,0,7,0,0,13,2,2,1,7,10,4,4,0,11,0,3,0,2,0,0,9,5,0,3,0,5,1,0,0,6,0,3,0,14,4,22,14,7,7,2,0,0,0,7,0,0,2,3,0,0,29,0,0,5,3,1,0,4,0,4,0,1288.txt
9,12,4,1,6,6,0,0,3,2,29,0,2,9,0,9,5,4,1,9,0,27,0,2,1,2,4,1,27,27,4,4,4,2,0,20,2,5,4,1,1,21,8,5,21,13,0,0,1,0,0,0,2,3,5,9,18,0,0,10,4,1,0,14,4,5,5,1290.txt
9,10,4,1,6,6,0,0,3,2,29,2,2,9,1,9,5,4,1,18,0,0,0,2,10,2,4,10,28,2,21,4,5,2,0,20,2,0,3,1,1,21,8,5,21,13,0,0,0,0,0,1,5,2,5,9,16,0,0,10,4,1,0,10,5,10,2,1292.txt
5,11,0,1,6,6,0,0,0,0,0,2,2,9,0,1,7,4,0,10,0,14,0,2,1,6,3,0,0,0,0,4,1,2,0,0,1,0,0,0,4,17,4,14,0,12,0,0,0,0,0,0,2,3,0,0,14,0,0,5,0,1,0,0,0,1,5,1295.txt
5,11,0,1,6,6,0,0,0,16,26,0,2,25,0,10,7,4,0,11,0,0,0,2,1,6,20,5,0,6,0,4,1,2,0,4,1,0,0,1,1,17,5,5,4,12,0,5,0,0,0,0,5,3,5,4,1,0,4,18,4,1,0,6,0,10,3,1297.txt
5,11,0,1,6,6,0,0,3,13,0,2,2,9,1,1,7,4,0,10,0,0,0,2,10,6,4,0,5,0,0,4,1,2,0,7,0,0,0,13,4,17,5,4,7,12,0,0,0,0,0,0,2,3,0,0,13,0,0,5,15,1,0,4,3,7,5,1300.txt
5,12,0,1,6,6,0,0,0,0,26,0,2,9,19,9,5,4,0,23,0,0,0,2,10,6,3,0,0,6,1,4,1,2,0,20,2,17,4,1,1,19,5,5,3,13,0,6,0,0,0,0,5,7,5,1,1,0,4,21,10,1,0,11,0,10,3,1302.txt
5,11,3,1,6,6,0,0,0,0,13,0,2,9,0,1,7,4,0,5,0,3,0,2,1,6,3,9,0,0,0,4,1,2,0,4,0,4,0,14,0,17,6,18,7,12,0,0,0,0,0,0,2,3,0,0,14,0,0,5,3,1,0,5,0,0,5,1303.txt
5,11,4,1,6,6,0,0,0,13,13,0,2,9,0,1,12,4,0,10,0,0,0,2,1,6,4,8,0,0,0,4,5,2,0,6,0,0,0,13,0,17,5,4,7,12,0,0,0,5,0,0,2,3,0,0,3,0,0,5,5,1,0,16,0,0,6,1305.txt
5,11,0,1,6,6,0,0,0,0,26,0,2,9,0,1,7,4,0,5,0,0,0,2,1,6,3,8,5,6,0,4,1,2,0,4,1,3,0,13,4,17,6,14,7,12,0,0,0,0,0,0,5,3,0,0,1,0,0,5,3,1,0,5,0,4,7,1307.txt
5,13,6,0,6,6,0,1,0,13,0,0,15,1,0,1,19,4,0,18,0,27,0,2,0,4,7,0,18,0,0,4,8,2,0,3,0,6,5,8,3,21,5,3,4,7,0,0,0,0,0,1,2,0,0,0,18,0,0,11,1,1,0,14,0,4,4,1309.txt
5,11,0,1,6,6,0,0,3,0,0,2,2,9,0,1,7,4,0,5,0,0,0,2,1,6,3,0,5,0,0,4,1,2,0,7,1,0,0,0,4,17,4,14,12,12,0,0,0,0,0,0,2,3,0,0,0,0,0,5,0,1,0,4,0,10,5,1311.txt
5,11,0,1,6,6,0,0,0,0,0,0,2,9,0,1,7,4,0,5,0,5,0,2,1,6,3,0,0,5,0,4,1,2,0,4,0,0,0,0,0,17,4,14,0,12,0,0,0,2,0,0,2,3,0,0,10,0,0,5,0,1,0,0,3,4,5,1314.txt
5,11,3,1,6,6,0,0,0,0,13,0,2,9,0,1,12,4,0,5,0,3,0,2,1,6,3,9,5,0,0,4,1,2,0,4,0,0,0,0,4,17,4,14,7,12,0,0,0,0,0,0,2,3,0,0,0,0,0,5,7,1,0,0,0,4,5,1315.txt
5,11,0,1,6,6,0,1,0,0,0,0,2,9,0,1,7,4,0,26,0,0,0,2,1,27,3,3,0,6,0,4,1,2,0,0,1,6,0,4,4,15,5,14,4,12,0,0,0,0,0,0,2,0,0,0,5,0,0,17,4,1,0,0,0,3,9,1317.txt
5,13,0,0,6,6,0,1,0,13,13,0,16,1,0,1,19,4,0,28,0,0,0,2,0,4,7,9,18,5,0,4,1,2,0,3,0,6,2,4,3,25,5,4,4,7,0,0,0,0,0,0,5,0,0,0,24,0,0,14,1,1,0,14,0,0,5,1318.txt
5,11,0,1,6,6,0,0,0,0,26,0,2,9,0,9,7,4,0,11,0,0,0,2,1,6,16,0,5,6,0,4,1,2,0,0,0,3,0,14,4,22,4,14,0,12,0,0,0,2,0,0,2,3,0,0,17,0,0,5,3,1,0,5,0,4,7,1320.txt
5,11,0,1,6,6,0,0,3,0,26,2,2,9,0,1,7,4,0,5,0,1,0,2,1,7,3,0,5,6,0,4,1,2,0,7,0,4,0,14,4,17,4,14,16,12,0,0,0,0,0,0,2,3,0,0,1,0,0,5,3,1,0,4,2,17,7,1323.txt
5,11,4,1,6,6,0,0,0,0,0,0,2,9,0,1,22,4,0,9,0,0,0,2,1,7,16,0,0,0,0,4,1,2,0,0,0,0,0,0,4,21,4,11,0,12,0,0,0,0,0,0,2,3,0,0,14,0,0,5,0,1,0,0,7,13,5,1325.txt
9,11,4,1,6,6,0,0,0,13,29,2,2,9,0,1,7,4,0,9,0,0,0,2,1,7,4,16,0,6,0,4,5,2,0,6,0,0,0,2,4,21,8,4,3,12,0,0,0,0,0,0,2,3,0,0,16,0,0,5,0,1,0,4,0,4,5,1327.txt
5,11,6,1,6,6,0,1,3,13,0,2,2,1,0,1,12,4,0,9,0,0,0,2,2,7,4,0,8,5,0,4,8,2,0,7,0,6,0,7,4,21,5,3,4,12,0,0,0,0,0,0,2,3,0,0,18,0,0,18,3,1,0,8,0,10,4,1329.txt
5,11,0,1,6,6,0,0,0,2,29,2,2,9,0,1,7,4,0,10,0,0,0,2,1,7,4,17,0,6,0,4,1,2,0,6,1,3,0,2,4,17,9,4,3,12,0,0,0,0,0,0,5,3,0,0,1,0,0,5,10,1,0,14,0,8,7,1331.txt
5,5,3,0,6,6,0,0,0,2,29,0,2,1,0,8,4,4,0,11,0,3,0,2,0,0,20,0,0,0,0,5,1,2,0,4,0,4,0,13,4,22,14,6,19,4,0,0,0,7,0,0,2,3,0,0,19,0,0,5,0,1,0,6,7,13,0,1332.txt
5,11,0,1,6,6,0,0,0,0,13,0,2,9,0,1,7,4,1,5,0,9,0,2,1,7,20,9,16,0,1,4,1,2,0,6,1,0,0,13,4,17,6,8,7,12,0,0,0,2,0,0,5,3,0,0,19,0,0,10,0,1,0,0,0,10,5,1335.txt
5,10,0,1,6,6,0,1,0,25,13,2,15,9,0,1,7,4,6,6,0,0,0,0,1,29,7,9,18,4,1,4,5,2,0,3,1,2,5,1,12,21,9,5,3,12,0,0,0,0,0,1,0,2,4,8,18,0,0,19,2,1,0,14,0,10,4,1337.txt
5,11,3,1,6,6,0,0,3,13,0,2,2,9,0,1,12,4,0,11,0,3,0,2,1,11,4,0,3,0,1,4,1,2,0,7,1,12,0,13,4,17,5,4,7,12,0,0,0,2,0,0,5,3,0,0,19,0,0,10,10,1,0,10,7,10,5,1339.txt
5,11,0,1,6,6,0,0,0,0,0,0,2,9,0,1,7,4,0,5,0,10,0,2,1,6,3,0,0,6,0,4,1,2,0,4,1,4,0,0,0,17,4,14,0,12,0,0,0,2,0,0,5,3,0,0,17,0,0,5,0,1,0,6,0,10,5,1341.txt
5,11,3,1,6,6,0,0,0,0,0,0,2,9,0,1,7,4,0,11,0,3,0,2,1,6,10,0,0,0,0,4,1,2,0,7,0,4,0,0,0,17,4,10,13,12,0,0,0,0,0,0,5,3,0,0,19,0,0,5,0,1,0,12,7,16,5,1344.txt
5,11,0,1,6,6,0,0,0,0,0,0,2,9,0,1,7,4,0,5,0,0,0,2,1,6,3,0,0,5,0,4,1,2,0,4,0,3,0,0,4,17,4,14,7,12,0,0,0,0,0,0,2,3,0,0,10,0,0,5,3,1,0,5,0,0,5,1346.txt
5,11,0,1,6,6,0,0,0,0,26,0,2,9,0,1,7,4,0,11,0,0,0,2,1,6,20,18,0,6,0,4,1,2,0,4,1,3,0,13,0,17,6,7,7,12,0,0,0,0,0,0,5,3,0,0,1,0,0,5,10,1,0,5,0,0,7,1348.txt
11,12,0,1,6,10,0,3,3,23,30,2,2,9,1,1,7,4,0,15,0,1,0,2,4,28,20,0,5,6,5,4,1,2,0,17,1,11,7,1,9,17,8,5,29,12,0,0,0,7,0,1,2,2,5,1,1,2,0,18,11,1,0,8,7,10,5,1351.txt
5,11,0,1,6,6,0,0,0,0,0,0,2,9,0,1,22,4,0,11,0,0,0,2,1,6,8,0,0,0,0,4,1,2,0,7,0,0,0,14,0,17,4,9,18,12,0,0,0,0,0,0,5,3,0,0,19,0,0,5,0,1,0,0,3,4,6,1352.txt
5,11,0,1,6,6,0,0,3,0,26,0,2,9,0,9,7,4,0,5,0,0,0,2,1,6,3,0,5,6,0,4,1,2,0,7,0,12,0,2,4,22,9,14,3,12,0,6,0,6,0,0,5,3,0,0,17,0,4,5,3,1,0,10,0,4,3,1354.txt
5,11,3,1,6,6,0,0,0,2,29,2,2,9,0,1,7,4,0,11,0,3,0,2,1,7,4,26,0,4,0,4,5,2,0,4,0,4,0,9,0,17,5,4,4,12,0,0,0,2,0,0,2,3,0,0,18,0,0,5,7,1,0,4,0,4,5,1356.txt
5,11,4,1,6,6,0,0,0,2,29,0,2,9,0,1,7,4,0,9,0,14,0,2,1,7,4,0,0,0,0,4,5,2,0,0,0,0,0,21,0,21,1,4,3,12,0,0,0,0,0,0,2,3,0,0,3,0,0,5,0,1,0,16,0,4,5,1358.txt
5,11,4,1,6,6,0,0,3,11,0,2,2,9,15,9,7,4,0,21,0,27,0,2,2,19,4,0,5,4,0,4,8,2,0,0,0,4,0,21,4,21,5,2,20,12,0,0,0,2,0,0,2,3,0,0,18,0,0,5,0,1,0,4,0,4,5,1360.txt
5,11,0,1,6,6,0,1,0,16,13,0,15,9,0,1,7,4,0,8,0,0,0,2,1,25,7,8,18,0,0,4,5,2,0,3,1,2,5,25,2,6,5,4,7,12,0,0,0,0,0,1,2,1,0,4,22,0,0,4,2,1,0,0,0,10,6,1362.txt
5,11,4,1,6,6,0,0,0,13,0,0,2,9,0,1,12,4,0,9,0,0,0,2,1,6,4,0,0,0,0,4,5,2,0,15,0,0,0,13,0,21,5,4,0,12,0,0,0,0,0,0,2,3,0,0,22,0,0,5,0,1,0,16,8,13,5,1364.txt
5,11,0,1,6,6,0,1,3,0,0,2,2,9,1,1,7,4,0,23,0,0,0,2,2,6,20,0,0,0,0,4,1,2,0,0,0,0,0,13,4,21,6,9,0,12,0,0,0,0,0,0,2,5,0,0,19,0,0,18,4,1,0,8,0,4,5,1367.txt
0,11,0,1,6,9,0,8,3,30,14,2,19,13,0,0,15,11,9,6,0,0,1,3,1,15,26,25,20,15,2,4,7,1,0,24,1,2,10,19,15,0,9,7,1,0,3,0,0,5,9,7,7,1,0,2,8,1,1,1,2,2,0,0,0,11,1,1368.txt
5,11,0,1,6,6,0,1,0,0,0,2,2,9,1,1,7,4,0,24,0,30,0,2,1,28,20,0,0,0,0,4,1,2,0,16,1,0,0,13,4,17,8,8,0,12,0,0,0,0,0,0,2,0,0,6,19,0,0,18,4,1,0,0,7,10,5,1371.txt
9,11,4,1,6,6,0,0,0,2,30,0,2,9,0,1,7,4,0,10,0,17,0,2,1,2,4,11,0,0,0,4,8,2,0,6,0,3,0,2,0,21,8,4,3,12,0,0,0,0,0,0,2,3,0,0,22,0,0,5,3,1,0,14,0,8,10,1372.txt
5,11,0,1,6,6,0,0,0,2,29,0,2,9,0,10,12,4,0,11,0,10,0,2,1,19,4,5,0,3,0,4,5,2,0,6,0,0,0,21,0,17,5,4,4,12,0,0,0,1,0,0,2,3,0,0,17,0,0,5,6,1,0,14,0,0,7,1375.txt
5,11,0,1,6,6,0,0,0,13,13,0,2,9,0,1,7,4,0,10,0,0,0,2,1,7,4,9,0,0,0,4,1,2,0,6,0,0,0,2,0,17,9,4,3,12,0,0,0,0,0,0,2,3,0,0,3,0,0,5,0,1,0,2,0,0,5,1377.txt
5,11,0,1,6,6,0,0,0,13,13,0,2,9,0,1,7,4,0,11,0,0,0,2,1,7,4,18,0,0,0,4,1,2,0,6,1,0,0,25,0,17,5,4,5,12,0,0,0,0,0,0,2,3,0,0,13,0,0,5,0,1,0,2,0,4,5,1379.txt
0,16,3,1,12,9,0,1,14,30,1,0,1,29,0,12,21,0,5,1,1,28,1,5,1,17,1,20,20,15,2,1,6,1,0,25,1,2,9,13,10,20,2,4,22,0,6,0,0,5,1,2,7,1,0,2,3,1,1,1,8,0,1,3,1,11,11,1380.txt
5,5,3,0,6,6,0,0,0,2,29,0,2,1,0,1,19,4,0,10,0,3,0,2,0,30,4,0,0,0,0,4,5,2,0,7,0,0,0,2,4,21,1,4,3,9,0,0,0,2,0,0,2,3,0,0,18,0,0,5,7,1,0,14,0,0,5,1383.txt
5,11,4,1,6,6,0,1,0,13,0,2,13,9,0,1,7,4,0,8,0,0,0,2,1,23,7,0,4,0,0,4,5,2,0,3,1,6,5,11,3,6,5,4,0,12,0,0,0,5,0,1,2,1,0,0,18,0,0,4,2,1,0,7,3,10,6,1389.txt
5,11,4,1,6,6,0,3,3,16,0,2,2,9,1,1,7,4,0,23,0,0,0,2,2,28,20,0,5,0,0,4,5,2,0,16,1,2,0,1,1,21,6,5,0,12,0,0,0,0,0,1,2,0,5,1,18,0,0,18,4,1,0,8,0,1,5,1390.txt
5,13,0,0,6,6,0,1,0,16,0,0,13,1,0,1,18,4,0,19,0,0,0,2,0,0,18,3,12,0,0,5,1,2,0,3,0,6,2,13,3,14,0,4,0,5,0,0,0,0,0,0,2,5,0,0,19,0,0,23,1,1,0,0,3,3,9,1392.txt
5,11,0,1,6,6,0,0,0,0,0,0,2,9,0,1,7,4,0,11,0,0,0,2,1,6,3,0,0,0,0,4,1,2,0,0,0,0,0,9,0,17,5,14,4,12,0,0,0,0,0,0,2,3,0,0,0,0,0,5,0,1,0,0,0,0,5,1395.txt
5,11,3,1,6,6,0,0,0,16,26,0,2,9,0,1,7,4,0,11,0,28,0,2,1,6,20,0,0,6,0,4,1,2,0,7,0,3,0,13,0,17,5,4,12,12,0,0,0,2,0,0,5,3,0,0,17,0,0,5,3,1,0,5,0,0,7,1396.txt
5,11,0,1,6,6,0,0,3,23,30,2,2,9,9,1,7,4,0,11,0,0,0,2,8,7,4,9,5,0,0,4,1,2,0,4,1,4,0,5,4,17,5,4,4,12,0,0,0,5,0,0,5,3,0,0,12,0,0,5,3,1,0,10,3,10,5,1398.txt
5,11,3,1,6,6,0,0,3,18,13,2,2,9,0,1,7,4,0,11,0,3,0,2,1,6,20,9,0,0,0,4,1,2,0,4,1,0,0,13,4,17,10,7,7,12,0,0,0,0,0,0,2,3,0,0,19,0,0,5,0,1,0,0,0,4,5,1400.txt
5,5,0,0,6,6,0,0,3,2,29,2,2,1,10,10,18,4,0,10,0,0,0,2,0,7,4,5,5,0,0,5,8,2,0,4,0,4,0,21,4,17,9,3,3,6,4,0,0,0,0,0,5,3,0,0,12,0,0,5,3,1,0,10,3,4,5,1402.txt
5,11,4,1,6,6,0,1,3,16,0,0,2,9,0,1,12,4,0,18,0,1,0,2,1,13,21,0,12,0,0,4,5,2,0,7,0,6,8,13,4,21,8,4,10,12,0,0,0,0,0,0,2,5,0,0,22,0,0,17,1,1,0,3,7,10,5,1405.txt
5,11,0,1,6,6,0,0,0,0,0,0,2,9,0,1,7,4,0,5,0,0,0,2,1,6,3,0,0,6,0,4,1,2,0,4,0,3,0,0,0,17,4,14,0,12,0,0,0,0,0,0,2,3,0,0,1,0,0,5,3,1,0,5,0,0,5,1407.txt
5,13,0,0,6,6,0,1,0,0,13,0,2,1,0,1,19,4,0,28,0,0,0,2,0,6,21,3,12,5,0,4,1,2,0,3,0,6,2,13,0,17,6,9,7,7,0,0,0,0,0,0,2,3,0,0,10,0,0,18,1,1,0,0,0,3,9,1409.txt
9,11,3,1,6,6,0,7,3,2,29,2,2,23,15,10,5,4,12,3,0,28,0,2,10,30,4,5,5,6,0,3,8,2,0,6,2,4,4,1,1,21,8,5,20,13,0,5,0,3,0,0,2,3,5,4,17,0,2,5,5,1,0,4,0,10,3,1412.txt
5,11,0,1,6,6,0,0,0,0,0,0,2,9,0,1,7,4,0,11,0,10,0,2,1,6,20,0,0,0,0,4,1,2,0,7,1,0,0,13,0,17,6,6,15,12,0,0,0,0,0,0,2,3,0,0,19,0,0,5,0,1,0,0,0,4,5,1416.txt
5,11,0,1,6,6,0,0,0,13,13,0,2,9,0,1,12,2,0,9,0,7,0,2,1,6,4,0,0,0,0,4,5,2,0,7,0,0,0,22,5,21,5,4,4,12,2,0,0,4,0,0,4,3,0,0,18,0,0,5,7,1,0,14,0,4,6,1418.txt
5,11,0,1,6,6,0,1,0,0,0,0,13,9,0,1,7,4,0,0,0,0,0,2,1,28,7,0,18,0,0,4,1,2,0,3,1,6,5,0,2,9,4,14,15,12,0,0,0,0,0,1,2,1,0,1,0,0,0,4,2,1,0,0,3,4,5,1421.txt
5,11,6,1,6,6,0,0,0,13,0,0,2,9,0,1,12,4,0,9,0,28,0,2,2,6,4,0,0,5,0,4,5,2,0,0,0,16,0,13,4,21,5,4,0,12,0,0,0,2,0,0,2,3,0,0,18,0,0,5,0,1,0,3,0,4,5,1422.txt
5,11,0,1,6,6,0,1,0,0,13,0,2,9,0,1,7,4,0,4,0,0,0,2,1,6,3,13,0,0,0,4,1,2,0,4,1,0,0,0,4,17,4,14,7,12,0,0,0,0,0,0,2,5,0,0,0,0,0,18,4,1,0,0,0,4,5,1425.txt
5,11,0,1,6,6,0,8,0,20,13,0,2,9,0,10,7,4,0,4,0,0,0,2,1,23,10,5,12,0,0,4,1,2,0,4,1,6,0,21,0,16,5,10,4,12,0,0,0,0,0,0,5,7,0,0,19,0,0,23,10,1,0,5,0,10,5,1427.txt
5,11,0,1,6,6,0,1,0,0,0,0,13,9,0,1,7,4,0,0,0,0,0,2,1,28,7,0,4,0,0,4,1,2,0,3,1,6,5,0,3,25,4,14,0,12,0,0,0,0,0,1,2,1,0,0,14,0,0,4,2,1,0,12,3,10,5,1429.txt
5,11,0,1,6,6,0,11,3,20,11,2,15,11,1,4,8,4,0,0,0,0,0,2,1,13,7,4,18,0,0,4,1,2,0,3,0,6,5,0,3,6,4,11,26,12,0,0,0,5,0,1,2,1,0,0,14,0,0,7,1,1,0,7,3,8,4,1431.txt
5,11,4,1,6,6,0,0,0,0,26,0,2,9,0,1,7,4,0,24,0,0,0,2,1,28,20,9,0,6,0,4,1,2,0,6,1,3,0,13,1,17,5,4,7,12,0,0,0,0,0,0,5,5,0,6,1,0,0,18,10,1,0,5,0,10,3,1433.txt
5,11,0,1,6,6,0,0,3,13,26,2,2,9,1,10,12,4,0,11,0,6,0,2,6,6,4,5,5,3,0,4,1,2,0,4,0,4,0,13,4,17,5,4,7,12,0,0,0,2,0,0,2,3,0,0,17,0,0,5,7,1,0,4,0,4,7,1434.txt
5,11,0,1,6,6,0,0,3,13,26,2,2,9,1,10,12,4,0,11,0,6,0,2,6,6,4,5,5,3,0,4,1,2,0,4,0,4,0,13,4,17,5,4,7,12,0,0,0,2,0,0,2,3,0,0,17,0,0,5,7,1,0,4,0,4,7,1436.txt
5,11,3,1,6,6,0,7,3,14,0,2,2,9,1,9,7,4,0,5,0,3,0,2,10,6,4,0,5,0,0,4,1,2,0,0,0,0,0,2,4,22,9,4,3,12,0,0,0,6,0,0,2,3,0,0,19,0,0,5,15,1,0,4,0,4,8,1439.txt
5,11,0,1,6,6,0,0,3,20,26,2,2,9,0,10,12,4,0,5,0,29,0,2,1,6,20,5,0,3,0,4,1,2,0,4,0,0,0,13,4,17,5,7,7,12,0,0,0,0,0,0,2,3,0,0,1,0,0,5,0,1,0,4,0,4,7,1441.txt
5,11,0,1,6,6,0,1,0,0,0,0,13,9,0,1,7,4,0,24,0,0,0,2,1,23,7,0,18,0,0,4,1,2,0,3,1,6,5,14,3,7,6,15,17,12,0,0,0,0,0,1,3,1,0,0,19,0,0,11,2,1,0,0,3,10,5,1442.txt
15,13,0,0,6,6,0,8,0,18,13,0,16,3,0,10,1,4,0,6,0,0,0,0,0,0,7,5,18,18,0,5,1,0,0,3,0,6,5,21,3,3,1,7,3,3,0,0,0,5,4,1,2,1,0,0,7,1,0,3,1,1,0,5,0,0,4,1444.txt
5,11,4,1,6,6,0,0,3,2,28,0,2,9,0,1,12,4,0,9,0,14,0,2,1,30,4,9,0,0,0,4,5,2,0,6,0,0,0,2,4,21,9,4,3,12,0,0,0,0,0,0,2,3,0,0,18,0,0,5,0,1,0,14,0,0,5,1446.txt
5,13,4,0,6,6,0,0,0,25,13,0,2,1,0,1,18,4,0,10,0,0,0,2,0,0,4,23,0,0,0,5,8,2,0,6,0,0,0,7,0,21,0,3,4,15,0,0,0,0,0,0,2,3,0,0,22,0,0,5,0,1,0,16,0,18,9,1448.txt
5,11,0,1,6,6,0,0,0,0,0,0,2,9,0,1,12,4,0,5,0,0,0,2,2,6,3,0,0,0,0,4,1,2,0,4,0,0,0,0,4,17,4,14,0,12,0,0,0,0,0,0,2,3,0,0,0,0,0,5,0,1,0,0,3,4,5,1451.txt
5,11,0,1,6,6,0,1,0,0,0,0,2,9,0,1,7,4,0,10,0,0,0,2,7,6,20,0,5,0,0,4,1,2,0,30,0,4,0,14,4,17,4,15,0,12,0,0,0,0,0,0,2,3,0,0,19,0,0,18,11,1,0,6,3,9,5,1453.txt
5,11,3,1,6,6,0,0,0,2,29,0,2,9,0,9,7,4,0,9,0,21,0,2,1,30,4,26,0,0,0,4,8,2,0,6,3,0,0,21,1,21,5,3,4,12,4,0,0,0,0,0,2,3,0,3,3,0,0,5,0,1,0,2,5,17,5,1454.txt
5,11,4,1,6,6,0,3,0,11,0,0,2,9,0,1,7,4,0,6,0,0,0,2,1,28,4,0,14,0,1,4,5,2,0,7,1,2,0,1,1,21,9,5,3,12,0,0,0,0,0,1,2,1,5,6,3,0,0,22,11,1,0,16,0,10,4,1456.txt
5,11,0,1,6,6,0,0,3,2,29,2,2,9,1,1,7,4,0,10,0,0,0,2,12,9,4,0,5,5,0,4,1,2,0,14,0,0,0,2,4,17,9,9,3,12,0,0,0,7,0,0,2,3,0,0,24,0,0,5,0,1,0,4,0,4,5,1458.txt
9,13,0,0,6,6,0,0,0,0,26,2,2,1,0,1,18,4,0,5,0,20,0,2,0,0,3,9,0,3,0,5,1,2,0,4,0,4,0,14,4,17,8,13,7,5,0,0,0,0,0,0,2,3,0,0,1,0,0,5,5,1,0,6,2,17,3,1460.txt
5,11,0,1,6,6,0,0,0,16,13,0,2,9,0,1,7,4,0,24,0,28,0,2,1,28,4,3,0,12,0,4,5,2,0,6,1,3,0,9,1,17,5,4,4,12,0,0,0,0,0,0,2,0,0,4,25,0,0,18,10,1,0,5,0,10,9,1462.txt
5,11,0,1,6,6,0,0,0,0,0,0,2,9,0,1,7,4,0,5,0,0,0,2,1,6,3,0,0,5,1,4,1,2,0,4,1,9,0,0,0,17,4,14,14,12,0,0,0,0,0,0,2,3,0,0,10,0,0,5,0,1,0,6,0,10,5,1465.txt
5,11,3,1,6,6,0,0,3,0,0,2,2,9,1,1,7,4,0,5,0,3,0,2,10,6,3,0,5,0,0,4,1,2,0,7,0,0,0,0,4,17,4,14,12,12,0,0,0,2,0,0,2,3,0,0,0,2,0,5,0,1,0,4,0,4,5,1467.txt
5,11,3,1,6,6,0,0,0,19,0,0,2,9,0,1,7,4,0,10,0,3,0,2,1,6,20,0,0,0,0,4,1,2,0,7,0,0,0,14,0,17,4,4,12,12,0,0,0,2,0,0,5,3,0,0,18,0,0,5,0,1,0,6,0,4,5,1469.txt
5,11,3,1,6,6,0,0,3,10,26,0,2,9,7,9,6,4,0,11,0,3,0,2,1,30,4,12,27,6,1,4,8,2,0,4,2,3,0,1,1,18,5,5,3,13,0,0,0,2,0,0,5,3,5,6,17,0,0,10,10,1,0,14,0,10,7,1470.txt
5,11,6,1,6,6,0,1,0,13,0,0,15,3,0,1,1,4,0,8,0,21,0,0,1,29,17,0,2,15,1,4,7,2,0,3,1,2,5,26,14,21,5,5,0,12,0,0,0,0,9,1,6,2,4,1,18,1,0,19,2,1,0,14,8,2,4,1473.txt
5,11,0,1,6,6,0,1,0,16,13,0,2,9,0,1,7,4,6,24,0,0,0,2,1,28,20,0,13,0,1,4,1,2,0,6,1,6,0,13,0,13,5,4,7,12,0,0,0,0,0,0,2,0,0,0,19,0,0,10,4,1,0,0,0,10,5,1475.txt
5,5,0,0,6,6,0,0,0,16,13,0,2,1,0,1,3,4,0,10,0,28,0,2,0,0,0,9,0,0,0,5,1,0,0,6,0,3,0,4,0,17,8,4,4,2,0,0,0,0,0,0,2,3,0,0,18,0,0,5,3,1,0,5,0,0,0,1477.txt
5,11,0,1,6,6,0,1,3,15,13,2,15,9,0,1,12,4,0,19,0,0,0,2,6,13,7,3,18,0,0,4,1,2,0,3,0,6,2,8,2,25,5,4,4,12,0,0,0,0,0,0,3,0,0,0,3,0,0,13,1,1,0,6,6,3,9,1480.txt
5,11,0,1,6,6,0,0,0,7,29,0,2,9,0,1,7,4,0,11,0,10,0,2,1,2,19,9,0,6,0,4,8,2,0,4,1,3,0,1,1,17,9,5,3,12,0,5,0,2,0,0,5,3,5,3,1,0,4,5,10,1,0,13,0,10,3,1482.txt
7,11,4,1,6,6,0,1,0,13,0,0,13,3,0,1,1,4,0,15,0,0,0,0,1,3,7,0,18,15,0,4,5,2,0,3,0,6,5,13,2,21,5,4,13,12,0,0,0,0,8,1,2,1,0,0,13,1,1,3,1,1,0,16,0,4,5,1484.txt
5,11,0,1,6,6,0,8,3,0,13,2,15,3,1,10,1,4,0,17,0,0,0,0,15,3,7,5,18,26,0,4,1,2,0,3,0,6,5,14,3,4,4,20,7,12,0,0,0,5,9,1,3,1,0,0,25,1,0,3,1,1,0,6,0,4,4,1487.txt
5,11,0,1,6,6,0,0,0,0,26,0,2,9,0,1,7,4,0,10,0,10,0,2,1,6,20,0,0,6,0,4,1,2,0,0,0,8,0,21,0,21,5,4,20,12,0,0,0,2,0,0,5,3,0,0,17,0,0,5,0,1,0,3,0,4,7,1490.txt
5,11,0,1,6,6,0,0,0,0,13,0,2,9,0,1,12,4,0,11,0,0,0,2,1,6,20,9,0,0,0,4,1,2,0,6,0,0,0,13,0,17,6,4,7,12,0,0,0,0,0,0,2,3,0,0,19,0,0,5,0,1,0,0,0,4,5,1491.txt
9,10,0,1,6,6,0,3,3,25,26,2,2,9,1,0,7,9,1,8,0,0,0,2,10,29,4,0,14,2,10,4,5,2,0,2,1,2,3,1,1,8,8,5,21,0,0,0,0,0,0,1,0,1,6,7,17,3,0,1,4,0,0,8,0,10,2,1494.txt
5,12,0,1,6,6,0,0,3,13,26,0,2,9,0,10,5,4,0,11,0,0,0,2,1,9,4,5,0,6,1,4,5,2,0,20,2,12,4,1,1,19,5,5,4,13,0,6,0,0,0,9,5,3,5,4,1,0,4,5,10,1,0,13,0,10,3,1497.txt
5,11,0,1,6,6,0,1,0,2,20,2,13,9,0,1,7,4,0,27,0,0,0,2,1,13,7,0,4,0,0,4,1,2,0,3,0,6,5,13,2,25,5,7,7,12,0,0,0,0,0,1,2,0,0,0,19,0,0,24,1,1,0,0,0,4,5,1499.txt
5,11,3,1,6,6,0,0,0,0,13,0,2,9,0,1,7,4,0,11,0,3,0,2,1,6,20,13,0,5,0,4,1,2,0,6,0,0,0,14,0,17,4,6,7,12,0,0,0,2,0,0,2,3,0,0,10,0,0,5,0,1,0,0,0,4,5,1502.txt
5,13,0,0,6,6,0,0,3,18,13,2,2,1,0,1,19,4,0,11,0,0,0,2,0,6,20,9,0,0,0,4,1,2,0,4,0,4,0,21,4,17,9,7,3,9,0,0,0,5,0,0,5,3,0,0,19,0,0,5,5,1,0,4,0,4,4,1504.txt
9,11,3,1,6,6,0,0,3,2,29,2,2,9,0,10,7,4,1,10,0,3,0,2,1,30,4,4,27,4,4,4,8,2,0,4,1,0,0,1,1,17,8,2,3,12,0,0,0,7,0,0,2,3,5,9,25,0,0,10,5,1,0,4,3,10,4,1505.txt
5,11,3,1,6,6,0,0,0,2,29,0,2,9,0,9,7,4,0,11,0,3,0,2,1,6,3,0,0,0,0,4,1,2,0,4,0,4,0,0,4,22,4,14,0,12,0,0,0,2,0,0,2,3,0,0,0,0,0,5,0,1,0,6,0,4,5,1507.txt
5,11,4,1,6,6,0,0,0,8,26,0,2,9,0,1,7,4,0,9,0,0,0,2,1,30,4,0,0,6,0,4,1,2,0,0,1,3,0,2,1,21,9,4,3,12,0,5,0,0,0,0,5,3,0,3,16,0,4,5,10,1,0,13,0,10,3,1509.txt
9,11,0,1,6,6,0,1,0,2,17,0,15,3,0,1,8,4,0,16,0,1,0,2,1,13,7,0,18,0,0,4,1,2,0,3,0,6,5,13,2,6,1,6,0,12,0,0,0,0,0,1,2,1,0,0,19,0,0,4,1,1,0,5,7,13,5,1511.txt
5,13,4,0,6,6,0,1,0,13,0,0,15,3,0,1,13,4,0,6,0,0,0,2,0,4,7,0,11,3,0,4,5,2,0,3,0,6,5,2,3,5,8,4,3,8,0,0,0,5,6,1,2,1,0,0,18,1,0,4,1,1,0,14,0,0,4,1513.txt
5,11,0,1,6,6,0,8,0,13,13,2,16,9,0,10,7,4,0,19,0,0,0,2,1,13,7,5,18,0,0,4,5,2,0,3,0,6,5,9,3,25,5,4,4,12,0,0,0,0,0,0,3,0,0,0,12,0,0,13,1,1,0,14,0,4,6,1515.txt
5,11,3,1,6,6,0,0,0,19,13,2,2,9,1,1,7,4,0,10,0,3,0,2,1,6,20,9,5,6,0,4,5,2,0,6,1,0,0,13,4,21,6,4,7,12,0,0,0,0,0,0,2,3,0,0,1,0,0,5,0,1,0,4,0,1,5,1518.txt
5,11,4,1,6,6,0,0,3,2,29,0,2,1,0,10,12,4,0,10,0,10,0,2,1,30,4,5,0,3,0,4,8,2,0,4,0,4,0,4,4,17,5,3,4,12,0,0,0,2,0,0,2,3,0,0,15,0,0,5,3,1,0,14,0,8,5,1519.txt
5,11,0,1,6,6,0,1,0,13,26,0,13,3,0,1,8,4,0,8,0,0,0,2,1,13,7,9,6,6,0,4,1,2,0,3,0,6,5,13,3,5,5,4,7,12,0,0,0,0,0,1,3,1,0,0,1,0,0,4,1,1,0,0,0,0,3,1521.txt
5,11,4,1,6,6,0,1,0,13,0,0,13,9,0,1,7,4,0,18,0,0,0,2,1,23,21,3,4,0,0,4,5,2,0,3,0,6,2,13,3,21,5,4,0,12,0,0,0,0,0,0,5,0,0,0,18,0,0,15,1,1,0,3,0,3,9,1523.txt
5,11,0,1,6,6,0,8,0,0,13,0,16,9,0,10,22,4,0,27,0,15,0,2,1,13,7,6,4,5,0,4,1,2,0,3,0,6,2,14,3,9,6,7,7,12,0,0,0,5,0,0,3,0,0,0,10,0,0,14,1,1,0,0,7,13,5,1526.txt
11,11,0,1,6,6,0,0,3,2,30,2,9,9,0,1,7,4,0,11,0,21,0,2,1,2,4,18,0,6,0,4,5,2,0,6,0,0,0,7,4,17,8,4,4,12,0,1,0,0,0,0,2,3,0,0,20,0,0,5,0,1,0,4,6,14,7,1528.txt
5,11,0,1,6,6,0,0,3,2,29,2,2,9,7,1,7,4,1,29,0,6,0,2,2,28,20,9,16,5,1,4,5,2,0,4,1,3,0,1,1,17,5,5,4,12,0,0,0,0,0,1,8,0,5,9,24,0,0,10,10,1,0,10,0,10,5,1529.txt
5,11,4,1,6,6,0,0,0,14,0,0,2,9,0,1,7,4,0,9,0,0,0,2,1,6,4,0,0,0,0,4,5,2,0,7,0,15,0,12,0,21,5,4,12,12,0,0,0,0,0,0,2,3,0,0,18,0,0,5,4,1,0,3,0,4,4,1532.txt
9,11,3,1,6,6,0,0,3,2,28,2,2,9,0,1,12,4,0,10,0,3,0,2,6,7,4,9,5,5,0,4,5,2,0,6,0,4,0,25,4,17,8,4,5,12,0,0,0,2,0,0,2,3,0,0,18,0,0,5,7,1,0,4,8,17,5,1534.txt
9,12,3,1,6,6,0,0,0,2,29,0,2,9,0,10,7,4,1,24,0,3,0,2,1,2,4,5,16,2,21,4,5,2,0,20,1,19,3,1,1,17,1,5,21,12,0,0,0,4,0,1,2,1,5,9,20,0,0,10,11,1,0,14,5,10,2,1536.txt
5,13,4,0,6,6,0,1,3,9,0,0,2,1,0,1,18,4,0,9,0,27,0,2,0,2,4,0,0,0,0,5,8,2,0,7,0,4,0,8,0,21,5,3,4,6,0,0,0,0,0,0,5,3,0,0,3,0,0,5,3,1,0,16,0,0,5,1538.txt
5,11,0,1,6,6,0,0,0,0,0,0,2,9,0,1,7,4,0,11,0,28,0,2,1,6,16,0,0,0,0,4,1,2,0,14,0,0,0,0,0,17,4,10,0,12,0,0,0,0,0,0,2,3,0,0,14,0,0,5,0,1,0,6,0,0,5,1540.txt
5,11,0,1,6,6,0,0,0,0,13,0,2,9,0,1,7,4,0,4,0,0,0,2,1,5,3,15,0,5,0,4,1,2,0,4,1,4,0,0,0,17,4,14,7,12,0,0,0,0,0,0,2,5,0,0,9,0,0,18,14,1,0,5,0,10,5,1543.txt
5,11,0,1,6,6,0,1,0,2,17,0,16,3,0,1,7,4,0,16,0,1,0,2,1,23,7,9,7,6,0,4,1,2,0,3,0,6,5,13,3,6,6,8,7,12,0,0,0,2,0,1,2,1,0,0,1,0,0,4,1,1,0,5,7,17,7,1545.txt
5,12,0,1,6,6,0,1,0,0,0,0,2,4,0,1,7,4,0,19,8,0,0,2,1,28,20,0,14,16,21,4,1,2,0,17,1,2,3,1,1,17,5,5,29,12,0,0,0,0,0,1,2,1,5,6,10,0,0,10,9,1,0,0,0,10,2,1546.txt
9,11,0,1,6,6,0,0,0,0,26,0,2,9,0,1,12,4,0,11,0,17,0,2,1,7,20,8,0,3,0,4,1,2,0,4,0,3,0,14,0,17,1,16,7,12,0,0,0,0,0,0,5,3,0,0,1,0,0,5,3,1,0,5,7,10,7,1548.txt
16,11,0,1,6,6,0,1,3,2,30,0,2,9,2,1,7,4,0,11,0,21,0,2,2,7,4,9,0,0,0,4,5,2,0,4,0,0,0,13,4,17,8,4,7,12,0,0,0,0,0,0,2,3,0,0,12,0,0,18,4,1,0,2,7,17,5,1551.txt
5,11,4,1,6,6,0,0,0,18,0,0,2,9,0,1,7,4,0,10,0,0,0,2,1,6,20,0,0,0,0,4,1,2,0,15,0,0,0,7,0,21,5,6,4,12,0,0,0,0,0,0,2,3,0,0,19,0,0,5,0,1,0,0,0,0,5,1552.txt
5,11,4,1,6,6,0,0,0,13,13,0,2,9,0,1,7,4,0,10,0,10,0,2,1,6,4,13,0,0,0,4,8,2,0,6,0,4,0,22,0,21,5,3,4,12,0,0,0,0,0,0,2,3,0,0,3,0,0,5,0,1,0,16,0,4,5,1556.txt
5,11,3,1,6,6,0,0,0,2,29,0,2,9,0,1,7,4,0,5,0,28,0,2,1,19,3,0,0,6,0,4,1,2,0,0,0,8,0,13,0,17,10,14,0,12,0,0,0,2,0,0,2,3,0,0,1,0,0,5,0,1,0,6,0,4,5,1558.txt
5,13,3,0,6,6,0,1,0,0,13,0,3,1,0,1,0,4,0,29,0,3,0,2,0,0,0,9,18,0,0,2,1,0,0,3,0,1,2,27,3,6,0,9,7,1,0,0,0,0,0,0,2,0,0,0,14,0,0,13,1,1,0,0,0,0,4,1561.txt
5,11,0,1,6,6,0,0,0,0,0,0,2,9,0,1,7,4,0,5,0,0,0,2,1,6,3,0,0,0,0,4,1,2,0,30,0,0,0,0,0,17,4,14,0,12,0,0,0,0,0,0,2,3,0,0,0,0,0,5,0,1,0,0,0,0,5,1563.txt
5,11,0,1,6,6,0,0,0,13,13,0,2,9,0,9,7,4,0,11,0,0,0,2,1,6,4,9,0,0,0,4,5,2,0,6,0,0,0,2,0,22,9,4,3,12,0,0,0,2,0,0,2,3,0,0,22,0,0,5,0,1,0,2,0,0,5,1565.txt
5,11,4,1,6,6,0,0,3,16,0,2,2,9,0,1,7,4,0,9,0,0,0,2,1,6,20,0,5,5,0,4,1,2,0,12,1,0,0,4,4,21,5,4,4,12,0,0,0,0,0,0,2,3,0,0,24,0,0,5,0,1,0,4,0,4,5,1567.txt
5,11,0,1,6,6,0,1,0,0,0,0,2,9,0,1,12,4,0,4,0,0,0,2,1,5,21,0,12,0,0,4,1,2,0,0,0,6,2,0,0,14,4,14,0,12,0,0,0,0,0,0,2,5,0,0,0,0,0,23,1,1,0,0,3,4,4,1570.txt
5,11,0,1,6,6,0,1,0,18,13,0,15,9,0,1,22,4,0,27,0,1,0,2,1,13,21,9,18,0,0,4,1,2,0,3,0,6,2,13,2,12,1,4,7,12,0,0,0,0,0,0,2,0,0,0,19,0,0,16,1,1,0,0,7,13,5,1572.txt
5,11,0,1,6,6,0,0,0,13,13,0,2,9,0,10,7,4,0,11,0,17,0,2,1,11,4,4,0,0,0,4,5,2,0,8,0,3,0,8,4,22,5,4,4,12,0,0,0,0,0,0,2,3,0,0,13,0,0,5,3,1,0,16,0,4,5,1574.txt
5,11,0,1,6,6,0,0,0,0,0,0,2,9,0,1,12,4,0,11,0,0,0,2,1,6,20,0,0,4,0,4,1,2,0,7,0,0,0,13,0,17,5,6,8,12,0,0,0,0,0,0,2,3,0,0,25,0,0,5,0,1,0,6,0,4,5,1581.txt
5,11,0,1,6,6,0,0,0,2,29,0,2,9,0,1,7,4,0,5,0,8,0,2,1,6,3,10,0,6,0,4,1,2,0,6,1,0,0,2,4,17,9,14,3,12,0,0,0,0,0,0,2,3,0,0,1,0,0,5,0,1,0,0,0,4,5,1583.txt
9,11,6,1,6,6,0,1,0,13,0,0,15,9,0,1,12,4,0,18,0,1,0,2,1,13,21,0,8,0,0,4,8,2,0,3,0,6,2,9,2,21,8,3,4,12,0,0,0,5,0,0,2,5,0,0,3,0,0,17,1,1,0,16,8,10,4,1585.txt
5,11,4,1,6,6,0,1,0,25,13,0,16,9,0,1,7,2,6,7,0,0,0,2,1,28,7,8,18,0,1,4,8,2,0,3,1,2,5,1,14,21,5,5,4,12,3,0,0,0,0,1,4,2,5,2,3,0,0,19,2,1,0,2,0,10,5,1587.txt
5,11,0,1,6,6,0,1,0,0,13,0,13,9,0,1,7,4,0,4,0,0,0,2,1,23,21,10,4,0,0,4,1,2,0,3,0,6,2,14,3,12,4,10,7,12,0,0,0,0,0,0,5,0,0,0,19,0,0,15,1,1,0,0,0,4,4,1589.txt
5,11,0,1,6,6,0,0,3,0,0,2,2,9,2,9,7,4,0,11,0,0,0,2,7,6,3,0,5,0,0,4,1,2,0,0,0,0,0,2,4,22,9,14,3,12,0,0,0,2,0,0,5,3,0,0,14,0,0,5,0,1,0,10,0,4,5,1590.txt
5,11,0,1,6,6,0,1,0,18,13,0,13,9,0,1,7,4,0,20,0,0,0,2,1,23,21,9,18,0,0,4,1,2,0,3,1,6,5,14,2,9,6,4,7,12,0,0,0,0,0,1,2,0,0,0,19,0,0,13,1,1,0,0,0,10,5,1594.txt
5,11,0,1,6,6,0,0,0,16,0,0,2,9,0,1,7,4,0,10,0,0,0,2,1,6,20,0,0,4,0,4,5,2,0,15,0,4,0,13,0,17,6,4,0,12,0,0,0,0,0,0,5,3,0,0,18,0,0,5,0,1,0,5,7,16,5,1596.txt
5,11,0,1,6,6,0,1,0,0,13,0,13,9,0,1,12,4,0,27,0,10,0,2,1,13,21,3,12,0,0,4,1,2,0,3,0,6,2,13,3,11,5,14,7,12,0,0,0,0,0,0,2,0,0,0,0,0,0,15,1,1,0,5,0,3,9,1598.txt
5,11,0,1,6,6,0,0,0,0,26,0,2,9,0,1,7,4,0,9,0,28,0,2,1,6,20,0,0,6,0,4,1,2,0,0,1,4,0,14,4,21,4,4,0,12,0,0,0,0,0,0,2,3,0,0,16,0,0,5,10,1,0,15,0,10,3,1600.txt
5,11,4,1,6,6,0,1,0,13,13,0,16,3,0,1,13,4,0,7,0,0,0,0,1,3,7,9,8,5,0,4,5,2,0,3,0,6,5,9,3,21,5,4,4,12,0,0,0,0,9,1,2,1,0,0,18,1,0,3,1,1,0,14,8,2,4,1602.txt
5,11,3,1,6,6,0,0,0,15,0,0,2,9,0,1,7,4,0,10,0,3,0,2,1,11,4,0,0,0,0,4,1,2,0,7,1,0,0,12,0,17,5,4,10,12,0,0,0,2,0,0,2,3,0,0,19,0,0,5,0,1,0,0,3,10,5,1604.txt
5,11,4,1,6,6,0,8,0,13,13,0,15,9,0,10,7,4,0,19,0,0,0,2,1,23,7,6,18,5,0,4,5,2,0,3,0,6,5,25,3,7,5,4,30,12,0,0,0,0,0,1,3,0,0,0,18,0,0,11,1,1,0,6,0,4,4,1605.txt
5,11,4,1,6,6,0,8,3,13,13,2,15,3,0,10,8,4,0,8,0,28,0,2,1,23,7,5,18,0,1,4,5,2,0,3,1,6,5,13,2,6,5,4,7,12,0,0,0,5,0,1,3,2,0,0,3,0,0,4,2,1,0,16,0,10,5,1608.txt
5,11,0,1,6,6,0,1,0,0,0,0,13,9,0,1,7,4,0,19,0,0,0,2,1,13,7,0,8,0,0,4,1,2,0,3,0,6,5,14,2,25,4,15,11,12,0,0,0,0,0,1,3,0,0,0,19,0,0,24,1,1,0,5,0,0,5,1610.txt
5,13,4,0,6,6,0,0,0,13,26,0,2,1,0,1,3,4,0,9,0,1,0,2,0,0,4,0,0,3,0,5,5,0,0,0,0,4,0,13,0,21,0,4,0,2,0,0,0,0,0,0,2,3,0,0,16,0,0,5,3,1,0,14,8,17,12,1612.txt
5,11,3,1,6,6,0,0,0,0,0,0,2,9,0,1,7,4,0,11,0,28,0,2,1,6,3,0,0,13,0,4,1,2,0,0,0,0,0,0,0,17,4,14,0,12,0,0,0,2,0,0,2,3,0,0,10,0,0,5,0,1,0,0,0,0,5,1615.txt
5,11,0,1,6,6,0,0,0,2,29,0,2,9,0,1,12,4,0,10,0,0,0,2,1,19,20,0,0,0,0,4,1,2,0,16,0,0,0,25,0,17,1,4,5,12,0,0,0,2,0,0,2,3,0,0,19,0,0,5,6,1,0,0,0,0,5,1616.txt
5,11,4,1,6,6,0,0,0,0,0,0,2,9,0,1,7,4,0,10,0,0,0,2,1,6,20,23,0,5,0,4,5,2,0,7,0,4,0,8,4,21,5,4,4,12,0,0,0,0,0,0,5,3,0,0,18,0,0,5,3,1,0,15,0,18,9,1618.txt
5,11,0,1,6,6,0,0,0,16,0,2,2,9,1,1,7,4,0,10,0,14,0,2,1,6,20,0,0,0,1,4,5,2,0,7,1,0,0,13,4,17,5,4,7,12,0,0,0,7,0,0,2,3,0,0,18,0,0,5,5,1,0,4,3,10,5,1622.txt
5,13,0,0,6,6,0,0,0,0,13,0,2,1,0,1,19,4,0,11,0,28,0,2,0,6,20,17,0,3,0,4,1,2,0,6,0,4,0,13,0,17,5,4,7,8,0,0,0,2,0,0,5,3,0,0,2,0,0,5,3,1,0,5,0,0,5,1623.txt
5,11,3,1,6,6,0,0,0,0,0,0,2,9,0,1,12,4,0,11,0,3,0,2,1,6,9,0,0,5,0,4,1,2,0,7,0,0,0,0,0,17,4,11,12,12,0,0,0,2,0,0,2,3,0,0,11,0,0,5,0,1,0,0,0,0,5,1626.txt
5,13,0,0,6,6,0,0,0,0,13,0,2,1,0,1,4,4,0,5,0,0,0,2,0,0,3,17,0,5,0,5,1,0,0,4,0,3,0,0,0,17,0,14,7,2,0,0,0,5,0,0,2,3,0,0,10,0,0,5,3,1,0,5,0,0,4,1629.txt
5,11,4,1,6,6,0,1,0,16,26,0,13,9,0,1,12,4,0,18,0,0,0,2,1,13,7,0,6,3,0,4,5,2,0,3,0,6,5,12,3,21,5,4,19,12,0,0,0,0,0,1,2,0,0,0,16,0,0,11,1,1,0,15,0,4,3,1631.txt
5,11,0,1,6,6,0,0,3,18,0,0,2,9,0,1,7,4,0,10,0,0,0,2,1,11,20,0,5,0,0,4,5,2,0,7,0,0,0,13,4,21,5,4,10,12,0,0,0,2,0,0,2,3,0,0,19,0,0,5,15,1,0,0,0,7,5,1632.txt
5,13,0,1,6,6,0,11,0,12,13,0,15,3,0,10,29,4,0,7,0,0,0,0,1,13,7,19,18,15,0,4,8,2,0,3,0,6,5,6,3,4,5,3,4,12,5,0,0,0,8,1,2,2,0,0,15,1,0,3,1,1,0,14,0,0,4,1637.txt
7,11,0,1,6,6,0,1,0,13,13,0,13,3,0,1,1,4,0,7,0,0,0,0,1,3,7,27,18,15,0,4,5,2,0,3,0,6,5,9,3,3,8,4,4,12,0,0,0,0,8,1,2,1,0,0,18,1,1,3,1,1,0,14,7,17,5,1639.txt
5,11,3,1,6,6,0,0,0,2,29,0,2,9,0,1,7,4,0,11,0,3,0,2,1,22,3,0,16,6,4,4,1,2,0,4,1,0,0,1,1,17,8,5,12,12,0,1,0,2,0,0,2,3,5,6,1,0,0,10,4,1,0,0,0,10,3,1641.txt
5,11,0,1,6,6,0,0,0,0,26,0,2,9,0,1,7,4,0,19,0,0,0,2,1,5,16,0,0,6,0,4,1,2,0,0,1,3,0,0,1,21,4,11,0,12,0,0,0,0,0,0,5,5,5,1,1,0,0,18,10,1,0,5,3,10,5,1643.txt
5,13,0,1,6,6,0,1,0,0,13,0,15,3,0,1,13,4,0,15,0,10,0,0,1,13,7,10,18,0,0,4,1,2,0,3,0,6,5,13,3,5,5,15,7,12,0,0,0,0,8,1,2,1,0,0,19,1,0,4,1,1,0,0,0,4,4,1645.txt
7,13,0,0,6,6,0,8,0,0,26,0,16,3,0,10,1,4,0,16,0,0,0,0,0,0,7,5,6,10,0,5,1,2,0,3,0,6,5,14,3,3,13,9,7,5,0,0,0,0,4,1,9,1,0,0,1,1,0,3,1,1,0,5,0,0,7,1647.txt
5,5,0,0,6,6,0,0,3,13,13,2,2,1,0,10,4,4,0,11,0,0,0,2,0,0,4,5,0,3,0,5,5,0,0,4,0,4,0,11,0,17,14,4,7,2,0,0,0,2,0,0,2,3,0,0,29,0,0,5,15,1,0,4,0,8,0,1650.txt
5,11,0,1,6,6,0,0,0,20,7,0,2,9,0,10,12,4,0,5,0,0,0,2,1,6,20,5,0,5,0,4,1,2,0,6,0,0,0,21,0,17,9,4,3,12,0,0,0,0,0,0,2,3,0,0,10,0,0,5,0,1,0,0,0,4,5,1652.txt
5,11,3,1,6,6,0,0,0,0,0,0,2,9,0,1,12,4,0,5,0,28,0,2,1,6,3,0,0,0,0,4,1,2,0,7,0,3,0,0,0,17,4,14,9,12,0,0,0,0,0,0,5,3,0,0,0,0,0,5,3,1,0,5,0,0,5,1654.txt
5,13,0,0,6,6,0,1,0,14,13,0,2,1,0,1,19,4,0,9,0,0,0,2,0,6,4,9,0,0,0,4,5,2,0,6,0,0,0,13,0,21,5,4,7,8,4,0,0,0,0,0,2,3,0,0,18,0,0,5,11,1,0,3,0,0,5,1655.txt
5,11,0,1,6,6,0,1,3,0,0,2,13,9,0,1,7,4,0,16,0,0,0,2,1,23,7,0,11,6,0,4,1,2,0,3,1,6,5,14,3,6,6,14,0,12,0,0,0,0,0,1,2,1,0,0,4,0,0,8,1,1,0,7,0,10,5,1657.txt
5,13,0,1,6,6,0,0,0,0,0,0,2,1,0,1,19,4,0,11,0,10,0,2,0,6,20,0,0,0,0,4,1,2,0,7,0,0,0,14,4,17,4,6,7,10,0,0,0,2,0,0,2,3,0,0,19,0,0,5,0,1,0,0,7,17,5,1660.txt
5,11,4,1,6,6,0,0,3,7,13,2,2,9,1,1,11,4,0,10,0,17,0,2,6,30,4,0,5,6,0,4,8,2,0,7,0,0,0,21,4,17,5,2,20,12,0,0,0,0,0,0,2,3,0,0,18,0,0,5,5,1,0,4,4,17,5,1662.txt
5,11,4,1,6,6,0,1,0,0,0,2,13,9,0,1,7,4,0,0,0,0,0,2,1,13,7,0,8,0,0,4,1,2,0,3,0,6,5,0,2,6,4,6,18,12,0,0,0,0,0,1,3,1,0,0,19,0,0,8,1,1,0,5,0,4,5,1663.txt
5,11,4,1,6,6,0,1,0,13,0,0,2,9,0,1,7,4,0,10,0,0,0,2,1,6,4,0,0,0,0,4,1,2,0,0,0,0,0,7,0,21,5,4,4,12,0,0,0,0,0,0,2,3,0,0,18,0,0,5,7,1,0,3,0,4,5,1666.txt
5,11,6,1,6,6,0,1,0,13,0,0,2,9,0,1,7,4,0,18,0,27,0,2,2,23,4,0,14,0,1,4,5,2,0,0,1,6,0,13,4,21,5,4,0,12,0,0,0,0,0,0,2,0,0,0,3,0,0,18,10,1,0,16,0,10,5,1667.txt
5,11,0,1,6,6,0,1,0,0,0,0,2,9,0,1,7,4,0,11,0,14,0,2,1,6,20,0,0,0,0,4,1,2,0,7,0,0,0,14,0,17,6,8,7,12,0,0,0,0,0,0,2,3,0,0,19,0,0,18,4,1,0,0,0,0,5,1669.txt
5,11,0,1,6,6,0,0,0,0,0,0,2,9,0,1,7,4,0,11,0,7,0,2,1,11,3,0,0,0,0,4,1,2,0,0,0,4,0,27,4,17,4,14,0,12,0,0,0,2,0,0,2,3,0,0,0,0,0,5,0,1,0,12,0,4,5,1671.txt
5,11,0,1,6,6,0,0,0,0,0,0,2,9,0,1,7,4,0,5,0,0,0,2,1,6,3,0,0,0,0,4,1,2,0,0,1,0,0,0,0,17,4,14,0,12,0,0,0,0,0,0,2,3,0,0,0,0,0,18,4,1,0,0,0,4,5,1673.txt
5,11,0,1,6,6,0,1,0,0,13,0,2,9,0,1,12,4,0,11,0,0,0,2,1,6,20,0,8,5,0,4,1,2,0,6,0,6,0,13,4,17,6,4,7,12,0,0,0,2,0,0,5,3,0,0,30,0,0,18,3,1,0,5,0,4,5,1676.txt
5,11,4,1,6,8,0,1,0,17,0,0,13,3,0,1,13,4,0,16,0,0,0,2,1,23,7,0,4,5,0,4,1,2,0,3,1,6,5,14,3,21,6,4,0,12,0,0,0,0,9,1,2,2,0,0,18,1,0,3,1,1,0,3,0,0,5,1677.txt
0,13,0,0,6,5,0,1,5,26,27,0,17,13,0,12,21,11,0,8,3,28,1,3,0,18,24,2,20,10,0,5,0,4,0,21,0,6,10,13,10,0,11,4,28,14,0,0,0,5,1,7,7,1,0,0,8,1,1,2,1,0,0,5,3,4,11,1680.txt
5,14,4,1,6,6,0,9,0,13,26,0,2,9,0,10,7,4,0,7,0,0,0,2,1,3,22,5,0,6,0,4,8,2,0,4,1,2,0,1,1,21,5,5,4,12,0,4,0,0,0,8,0,2,5,4,17,0,4,3,10,1,0,13,0,10,3,1682.txt
5,11,0,1,6,6,0,1,0,0,13,0,16,3,0,1,7,4,0,15,0,0,0,2,1,29,7,9,18,4,1,4,1,2,0,3,1,2,5,1,12,5,6,5,7,12,0,0,0,0,0,1,6,1,5,4,7,0,0,19,2,1,0,0,0,10,6,1684.txt
5,11,0,1,6,6,0,1,0,0,0,0,2,9,0,1,12,4,0,11,0,0,0,2,1,6,3,0,0,0,0,4,1,2,0,4,0,0,0,0,0,17,4,14,17,12,0,0,0,0,0,0,2,3,0,0,0,0,0,5,0,1,0,0,0,0,5,1686.txt
5,11,0,1,6,6,0,0,3,0,0,0,2,9,0,1,7,4,0,5,0,17,0,2,1,6,3,0,0,13,0,4,1,2,0,15,0,0,0,0,4,17,4,14,0,12,0,0,0,6,0,0,2,3,0,0,9,0,0,5,0,1,0,0,0,0,5,1692.txt
5,11,3,1,6,6,0,0,0,0,13,0,2,9,0,1,7,4,0,11,0,3,0,2,1,11,20,9,0,0,0,4,1,2,0,6,1,0,0,14,0,17,4,4,7,12,0,0,0,2,0,0,2,3,0,0,19,0,0,5,0,1,0,0,0,10,5,1694.txt
5,11,3,1,6,6,0,0,0,0,26,0,2,9,0,1,7,4,0,11,0,3,0,2,1,6,20,13,0,6,0,4,1,2,0,6,0,0,0,0,0,17,4,10,7,12,0,0,0,2,0,0,2,3,0,0,1,0,0,5,0,1,0,0,0,0,7,1696.txt
5,11,0,1,6,6,0,0,0,18,0,0,2,9,0,1,7,4,0,11,0,1,0,2,1,11,20,0,0,6,0,4,1,2,0,7,0,3,0,13,4,17,6,4,8,12,0,0,0,0,0,0,5,3,0,0,5,0,0,5,3,1,0,5,7,17,5,1698.txt
10,11,0,1,6,9,0,1,5,30,14,0,13,13,0,0,21,3,0,17,0,28,1,3,1,29,17,20,20,15,0,4,7,1,0,1,0,6,1,14,2,0,4,10,22,12,0,0,0,0,8,2,7,1,0,0,14,1,1,3,1,0,0,0,3,2,5,1699.txt
5,11,0,1,6,6,0,0,0,18,0,0,2,9,0,1,7,4,0,10,0,0,0,2,1,6,20,0,0,0,0,4,1,2,0,7,1,0,0,13,0,17,6,4,13,12,0,0,0,0,0,0,5,3,0,0,19,0,0,5,0,1,0,0,0,0,5,1701.txt
5,11,0,1,6,6,0,1,0,0,0,0,13,3,0,1,13,4,0,17,0,0,0,0,1,13,7,0,18,0,0,4,1,2,0,3,1,2,5,14,3,5,1,11,7,12,0,0,0,0,9,1,3,1,0,0,19,1,0,3,2,1,0,12,7,2,10,1705.txt
5,11,0,1,6,6,0,0,0,0,0,0,2,9,0,1,7,4,0,4,0,0,0,2,1,5,3,0,0,0,0,4,1,2,0,4,1,0,0,0,1,17,4,14,0,12,0,0,0,0,0,0,2,5,0,1,0,0,0,18,4,1,0,0,0,10,5,1707.txt
5,11,0,1,6,6,0,0,0,0,0,0,2,9,0,6,7,4,0,5,0,0,0,2,1,6,3,0,0,4,0,4,1,2,0,4,0,3,0,0,4,19,4,14,13,12,0,0,0,2,0,0,2,3,0,0,7,0,0,5,3,1,0,5,0,4,5,1709.txt
5,11,0,1,6,6,0,0,0,0,13,0,2,9,0,1,7,4,0,5,0,0,0,2,2,6,3,9,0,0,1,4,1,2,0,4,1,0,0,0,4,17,4,14,7,12,0,0,0,2,0,0,2,3,0,0,0,0,0,5,0,1,0,0,0,10,5,1715.txt
5,11,4,1,6,6,0,1,0,16,13,0,13,3,0,1,8,4,0,8,0,0,0,2,1,13,7,0,8,0,1,4,1,2,0,3,1,6,5,25,2,21,5,4,7,12,0,0,0,0,0,1,3,1,0,0,3,0,0,4,1,1,0,5,0,10,4,1717.txt
5,11,3,1,6,6,0,0,0,0,26,0,2,9,0,1,7,4,0,5,0,3,0,2,1,6,3,0,0,6,0,4,1,2,0,4,0,13,0,0,4,17,4,14,0,12,0,6,0,2,0,0,5,3,0,0,1,0,4,5,3,1,0,11,0,4,7,1720.txt
5,11,3,1,6,6,0,0,0,0,0,0,2,9,0,1,7,4,0,5,0,28,0,2,1,6,3,0,0,0,0,4,1,2,0,4,0,0,0,0,0,17,4,14,0,12,0,0,0,2,0,0,2,3,0,0,0,0,0,5,0,1,0,0,0,0,5,1723.txt
5,11,0,1,6,6,0,0,0,0,0,0,2,9,0,1,7,4,0,11,0,0,0,2,1,6,3,0,5,5,0,4,1,2,0,0,0,4,0,0,4,17,4,14,0,12,0,0,0,0,0,0,2,3,0,0,10,0,0,5,0,1,0,12,0,4,5,1725.txt
5,11,0,1,6,6,0,0,0,0,0,0,2,9,0,1,7,4,0,11,0,0,0,2,1,6,16,0,0,0,0,4,1,2,0,0,1,0,0,0,4,17,4,14,0,12,0,0,0,0,0,0,2,3,0,0,0,0,0,5,0,1,0,0,0,1,5,1727.txt
5,13,0,0,6,6,0,8,0,13,13,0,16,3,0,10,8,4,0,7,0,0,0,2,0,0,7,5,18,0,0,5,5,2,0,3,0,6,5,10,2,6,0,4,4,5,0,0,0,0,4,1,2,0,0,0,13,0,0,7,1,1,0,16,0,7,4,1728.txt
5,11,3,1,6,6,0,0,0,0,0,0,2,9,0,1,7,4,0,5,0,28,0,2,1,6,16,0,0,6,0,4,1,2,0,7,0,0,0,14,4,17,6,8,8,12,0,0,0,6,0,0,2,3,0,0,17,0,0,5,0,1,0,0,0,4,5,1732.txt
5,11,0,1,6,6,0,0,0,18,0,0,2,9,0,1,7,4,0,10,0,10,0,2,1,6,20,0,0,13,0,4,1,2,0,0,0,0,0,13,4,21,6,4,0,12,0,0,0,2,0,0,2,3,0,0,10,0,0,5,7,1,0,0,3,16,6,1734.txt
0,13,0,0,6,9,0,1,5,29,27,0,19,13,0,12,21,11,0,8,0,0,1,3,0,1,26,20,20,10,0,4,7,1,0,21,0,6,1,13,10,0,5,6,22,7,0,0,0,0,1,2,7,1,0,0,19,1,1,3,1,0,0,0,0,2,1,1735.txt
5,11,0,1,6,6,0,1,0,0,0,0,15,9,0,1,12,4,0,24,0,0,0,2,1,13,7,0,18,0,0,4,1,2,0,3,0,6,5,0,2,6,4,14,0,12,0,0,0,0,0,1,2,0,0,0,14,0,0,11,1,1,0,0,0,0,4,1737.txt
11,5,0,0,6,6,0,0,3,2,29,0,2,1,0,10,4,4,0,11,0,1,0,2,0,0,20,5,5,3,0,5,1,0,0,4,0,20,0,14,0,17,8,4,7,2,0,0,0,0,0,0,2,3,0,0,1,0,0,5,5,1,0,6,7,17,0,1739.txt
5,13,3,0,6,6,0,8,3,2,30,2,2,1,1,10,18,4,0,11,0,3,0,2,0,0,4,5,5,0,0,5,1,2,0,4,0,0,0,4,4,17,0,4,4,5,0,0,0,2,0,0,2,3,0,0,12,0,0,5,0,1,0,2,0,9,5,1744.txt
5,11,3,1,6,6,0,0,3,13,13,2,2,9,1,1,7,4,0,9,0,3,0,2,1,7,4,12,0,0,0,4,8,2,0,6,1,5,0,21,4,21,9,3,3,12,0,0,0,2,0,0,2,3,0,0,3,0,0,5,0,1,0,4,0,4,5,1745.txt
5,13,4,0,6,6,0,1,0,16,0,0,2,1,0,1,19,4,0,9,0,0,0,2,0,6,4,0,0,0,0,4,5,2,0,0,0,6,0,13,0,21,5,4,0,9,0,0,0,0,0,0,2,3,0,0,3,0,0,18,3,1,0,15,3,10,5,1747.txt
10,11,0,1,6,6,0,8,0,13,13,0,16,3,0,10,1,3,0,7,0,0,0,0,1,3,7,5,18,15,0,4,7,2,0,3,0,6,5,7,2,3,1,4,4,12,0,0,0,0,9,1,6,2,0,0,15,1,1,3,1,1,0,16,6,16,4,1749.txt
11,13,3,0,6,6,0,1,0,2,30,2,2,1,0,1,4,4,0,10,0,21,0,2,0,0,4,0,0,0,0,5,5,2,0,7,0,3,0,6,4,21,8,4,4,4,0,0,0,5,0,0,5,3,0,0,13,0,0,5,3,1,0,16,5,13,12,1751.txt
5,5,4,1,6,6,0,0,0,8,0,0,2,1,0,1,19,4,0,9,0,27,0,2,0,30,4,0,0,13,0,4,8,2,0,7,0,16,0,4,0,21,5,2,4,10,0,0,0,2,0,0,2,3,0,0,18,0,0,5,15,1,0,14,0,4,5,1755.txt
5,11,0,1,6,6,0,0,0,0,0,0,2,9,0,9,7,4,0,5,0,0,0,2,2,6,3,0,0,0,0,4,1,2,0,0,0,0,0,23,4,22,5,14,4,12,0,0,0,6,0,0,2,3,0,0,0,0,0,5,0,1,0,0,0,4,5,1759.txt
5,13,0,0,6,6,0,8,0,0,26,0,15,1,0,10,4,4,0,27,0,0,0,2,0,0,7,5,6,3,0,5,1,0,0,3,0,6,5,13,3,6,0,4,7,2,0,0,0,5,0,0,3,0,0,0,1,0,0,11,1,1,0,5,0,4,7,1762.txt
5,12,0,1,6,6,0,0,0,2,29,2,2,9,2,10,7,4,0,5,0,17,0,2,1,22,4,4,5,6,0,4,5,2,0,20,2,4,0,1,1,19,5,5,4,12,0,5,0,0,0,0,5,3,5,4,1,0,4,5,0,1,0,10,0,10,3,1764.txt
5,11,6,1,6,6,0,1,0,11,13,0,13,3,0,1,8,4,0,6,0,27,0,2,1,13,7,0,18,0,0,4,8,2,0,3,0,6,5,21,2,21,5,2,4,12,0,0,0,0,0,1,2,2,0,0,3,0,0,7,1,1,0,16,0,0,4,1765.txt
5,12,3,1,6,6,0,3,0,13,26,0,2,9,0,10,7,4,0,24,0,21,0,2,1,28,4,5,5,6,0,4,5,2,0,17,1,2,3,1,1,15,5,5,29,12,4,7,0,2,0,13,10,1,5,4,21,0,0,17,12,1,0,13,5,10,3,1769.txt
11,11,0,1,6,6,0,1,3,0,13,2,2,9,0,1,12,4,0,11,0,1,0,2,1,7,20,9,0,0,0,4,1,2,0,4,0,3,0,13,4,17,8,8,7,12,0,0,0,5,0,0,2,3,0,0,19,0,0,18,3,1,0,8,7,14,4,1771.txt
5,11,0,1,6,6,0,0,3,18,26,0,2,9,2,9,7,4,0,11,0,0,0,2,1,6,20,0,5,6,0,4,5,2,0,7,0,3,0,13,4,22,5,4,7,12,0,0,0,2,0,0,5,3,0,0,20,0,0,5,3,1,0,5,0,4,7,1774.txt
5,11,0,1,6,6,0,0,0,0,0,2,2,9,0,1,7,4,0,11,0,0,0,2,1,7,20,0,0,5,0,4,1,2,0,7,0,0,0,2,4,17,9,9,3,12,0,0,0,0,0,0,2,3,0,0,11,0,0,5,4,1,0,0,0,4,5,1775.txt
5,11,0,1,6,6,0,0,0,0,0,0,2,9,0,1,7,4,0,5,0,7,0,2,1,6,3,0,0,0,0,4,1,2,0,4,0,0,0,0,4,17,4,14,10,12,0,0,0,2,0,0,5,3,0,0,14,0,0,5,0,1,0,0,0,4,5,1778.txt
5,11,0,1,6,6,0,1,0,13,13,0,15,3,0,1,28,4,0,8,0,0,0,0,1,3,7,9,18,15,0,4,5,2,0,3,1,6,5,25,3,4,5,4,5,12,0,0,0,0,9,1,2,1,0,0,9,1,0,3,1,1,0,14,0,2,4,1780.txt
5,11,0,1,6,6,0,0,1,0,0,0,2,9,0,1,12,4,0,11,0,10,0,2,1,6,20,0,0,3,0,4,1,2,0,12,0,3,0,13,4,17,6,7,19,12,0,0,0,0,0,0,5,3,0,0,4,0,0,5,3,1,0,5,3,4,5,1783.txt
5,11,0,1,6,6,0,0,0,13,13,0,2,9,0,10,7,4,0,11,0,17,0,2,1,6,4,5,0,0,0,4,5,2,0,6,1,0,0,13,0,17,5,4,7,12,0,0,0,0,0,0,2,3,0,0,3,0,0,18,4,1,0,2,0,0,5,1784.txt
10,11,0,1,6,6,0,1,3,0,0,2,13,3,0,1,1,3,0,0,0,0,0,0,1,3,7,0,18,26,0,4,0,2,0,3,0,6,5,0,3,3,4,14,17,12,0,0,0,2,9,1,2,1,0,0,14,1,1,3,1,1,0,7,3,7,4,1787.txt
5,11,3,1,6,6,0,1,0,0,26,0,2,9,0,1,7,4,0,0,0,3,0,2,1,23,7,9,6,6,0,4,1,2,0,4,1,2,0,0,0,7,4,14,7,12,0,0,0,5,0,1,3,1,0,6,20,0,0,11,10,1,0,5,3,10,7,1789.txt
5,11,0,1,6,6,0,1,3,0,0,2,13,3,1,1,13,4,0,0,0,1,0,0,10,13,7,0,4,0,0,4,1,2,0,3,0,6,5,0,3,4,4,14,0,12,0,0,0,0,9,1,2,1,0,0,0,1,0,3,1,1,0,7,2,15,6,1791.txt
5,11,0,1,6,6,0,0,0,13,13,0,2,9,0,10,7,4,0,10,0,17,0,2,1,6,4,5,0,0,0,4,5,2,0,4,0,0,0,3,0,17,5,4,4,12,0,0,0,0,0,0,2,3,0,0,15,0,0,5,7,1,0,2,0,0,5,1794.txt
5,11,0,1,6,6,0,8,0,13,13,0,15,3,0,10,13,4,0,8,0,0,0,2,1,23,7,6,18,0,0,4,5,2,0,3,0,6,5,13,2,21,5,4,7,12,4,0,0,0,9,1,2,1,0,0,3,1,0,3,1,1,0,2,0,0,4,1798.txt
9,11,0,1,6,6,0,0,0,7,9,0,2,9,0,9,7,4,1,9,0,27,0,2,1,30,19,15,27,6,4,4,3,2,0,6,2,4,0,2,6,21,8,19,3,12,4,0,0,7,0,0,2,3,0,0,2,0,0,10,10,1,0,14,0,10,5,1800.txt
5,11,0,1,6,6,0,1,0,0,0,0,15,3,0,1,13,4,0,6,0,0,0,2,1,13,7,0,18,0,0,4,1,2,0,3,0,6,5,21,2,5,5,9,4,12,0,0,0,0,9,1,2,1,0,0,19,1,0,4,1,1,0,0,0,0,4,1801.txt
5,11,0,1,6,6,0,0,0,0,0,0,2,9,0,1,7,4,0,11,0,0,0,2,1,6,3,0,0,0,0,4,1,2,0,0,0,0,0,0,0,17,4,14,0,12,0,0,0,0,0,0,2,3,0,0,0,0,0,5,4,1,0,0,0,0,5,1803.txt
5,11,0,1,6,6,0,0,0,10,13,0,2,9,0,10,7,2,0,11,0,0,0,2,1,30,4,5,0,5,0,4,1,2,0,6,0,0,0,2,0,17,9,4,3,12,2,0,0,0,0,0,4,3,0,0,15,0,0,5,0,1,0,14,0,0,5,1805.txt
5,11,0,1,6,6,0,0,0,0,0,0,2,9,0,9,7,4,0,11,0,0,0,2,1,6,13,0,0,0,0,4,1,2,0,0,0,0,0,21,0,22,5,11,4,12,0,0,0,6,0,0,2,3,0,0,14,0,0,5,0,1,0,0,0,4,5,1808.txt
0,0,0,0,3,9,0,1,8,30,27,0,20,13,0,0,21,8,0,0,2,0,1,3,0,1,30,20,20,14,2,1,6,1,0,21,0,6,9,0,3,0,3,11,24,0,1,0,0,0,1,2,12,1,0,0,1,1,1,0,1,0,1,0,3,11,11,1810.txt
9,11,4,1,6,6,0,1,0,2,18,0,13,9,0,1,7,4,0,8,0,1,0,2,1,23,7,13,18,0,0,4,5,2,0,3,0,6,5,13,2,6,8,4,7,12,0,0,0,0,0,1,3,1,0,0,22,0,0,8,1,1,0,2,7,17,5,1812.txt
5,11,0,1,6,6,0,0,0,0,0,0,2,9,0,1,7,4,0,11,0,0,0,2,1,11,3,0,0,0,0,4,1,2,0,0,1,0,0,4,0,17,5,14,4,12,0,0,0,0,0,0,2,3,0,1,0,0,0,5,0,1,0,0,0,4,5,1814.txt
5,11,3,1,6,6,0,7,3,0,0,2,2,9,0,13,7,4,0,5,0,3,0,2,1,6,3,0,5,22,0,4,1,2,0,0,0,0,0,0,4,22,4,14,0,12,0,0,0,7,0,0,2,3,0,0,10,2,0,5,15,1,0,4,0,4,4,1816.txt
5,12,0,1,6,6,0,0,3,2,29,0,2,9,2,9,5,4,1,11,0,21,0,2,1,22,4,9,28,0,1,4,5,2,2,20,5,0,4,1,1,22,5,5,4,13,0,0,0,2,0,0,2,3,5,9,18,0,0,10,7,1,0,14,5,10,5,1818.txt
5,11,0,1,6,6,0,11,0,16,13,0,16,3,0,10,8,2,0,8,0,0,0,2,1,13,7,4,8,0,0,4,5,2,0,3,0,6,5,13,2,6,5,4,6,12,2,0,0,0,0,1,3,1,0,0,8,0,0,7,1,1,0,5,0,10,4,1820.txt
7,13,0,0,6,6,0,1,3,16,0,0,15,3,0,1,1,4,0,8,0,0,0,0,0,3,7,0,8,26,0,4,1,2,0,3,0,6,5,13,3,3,5,4,12,8,0,0,0,5,7,1,9,1,0,0,19,1,1,3,1,1,0,5,0,4,4,1824.txt
5,11,0,1,6,6,0,0,0,0,26,0,2,9,0,1,12,4,0,11,0,17,0,2,1,6,20,9,0,3,0,4,1,2,0,4,0,8,0,14,0,17,15,7,7,12,0,0,0,0,0,0,2,3,0,0,1,0,0,5,0,1,0,6,0,0,7,1825.txt
5,13,0,0,6,6,0,1,0,16,13,0,15,1,0,1,19,4,0,24,0,30,0,2,0,4,7,8,18,0,0,4,5,2,0,3,0,6,5,9,2,6,5,4,4,7,0,0,0,5,0,1,2,0,0,0,3,0,0,11,1,1,0,6,3,10,4,1827.txt
5,11,4,1,6,6,0,0,3,7,0,2,2,9,0,1,7,4,1,9,0,0,0,2,1,30,4,0,16,0,1,4,8,2,0,0,1,15,0,1,1,21,9,5,3,12,0,0,0,0,0,0,2,3,5,3,3,0,0,10,5,1,0,4,4,10,4,1830.txt
5,11,0,1,6,6,0,3,3,0,0,2,2,9,0,1,7,4,0,24,0,14,0,2,1,28,3,0,5,0,0,4,1,2,0,7,1,7,0,25,4,17,5,14,5,12,0,0,0,0,0,0,2,0,0,6,14,0,0,18,4,1,0,0,0,10,5,1831.txt
5,11,0,1,6,6,0,0,0,0,0,0,2,9,0,1,7,4,0,5,0,0,0,2,2,6,3,0,0,0,0,4,1,2,0,0,0,0,0,0,4,17,4,14,0,12,0,0,0,0,0,0,2,3,0,0,0,2,0,5,0,1,0,0,0,4,5,1833.txt
11,11,4,1,6,6,0,0,0,11,0,0,2,9,0,1,11,4,0,9,0,1,0,2,1,30,4,0,0,0,0,4,8,2,0,14,0,4,0,22,0,21,1,3,4,12,0,0,0,2,0,0,2,3,0,0,3,0,0,5,0,1,0,16,6,13,5,1836.txt
5,11,0,1,6,6,0,0,0,0,13,0,2,9,0,9,22,4,0,11,0,0,0,2,1,6,20,9,0,0,0,4,1,2,0,6,0,0,0,13,4,22,5,4,7,12,0,0,0,2,0,0,2,3,0,0,19,0,0,5,0,1,0,0,0,4,5,1838.txt
5,12,0,1,6,6,0,0,3,23,29,2,2,9,7,16,17,4,3,23,0,17,0,2,10,28,4,1,5,28,12,4,5,2,0,20,2,3,13,1,1,21,5,5,29,16,4,0,3,0,0,1,8,1,5,4,16,0,0,21,10,1,0,10,0,5,2,1840.txt
5,11,0,1,6,6,0,0,3,0,13,2,2,9,2,1,7,4,0,4,0,0,0,2,2,5,16,0,0,6,0,4,1,2,0,4,1,4,0,25,4,17,5,14,7,12,0,0,0,0,0,0,5,5,0,6,1,0,0,18,11,1,0,10,0,10,6,1842.txt
5,11,0,1,6,6,0,0,0,0,0,0,2,9,0,1,7,4,0,5,0,10,0,2,1,6,3,0,0,13,0,4,1,2,0,4,0,0,0,0,4,17,4,14,0,12,0,0,0,2,0,0,2,3,0,0,10,0,0,5,0,1,0,0,0,4,5,1844.txt
5,11,0,1,6,6,0,0,3,2,29,2,2,9,1,1,7,4,0,5,0,8,0,2,2,6,3,0,0,0,0,4,1,2,0,7,0,0,0,0,4,17,4,14,18,12,0,0,0,0,0,0,2,3,0,0,0,0,0,5,0,1,0,0,0,4,5,1847.txt
5,11,0,1,6,6,0,1,3,0,13,2,13,9,0,1,12,4,0,4,0,0,0,2,1,13,21,0,12,0,0,4,1,2,0,3,0,6,2,14,2,15,6,8,7,12,0,0,0,0,0,0,2,5,0,0,19,0,0,17,1,1,0,7,3,4,5,1850.txt
5,11,3,1,6,6,0,0,3,0,0,2,2,9,16,9,12,4,0,5,0,3,0,2,7,6,3,0,5,23,0,4,1,2,0,0,0,4,0,15,4,22,4,11,0,12,0,0,0,2,0,0,2,3,0,0,10,0,0,5,3,1,0,4,0,4,5,1851.txt
5,11,3,1,6,6,0,1,3,0,13,2,16,3,1,1,8,4,0,17,0,3,0,2,2,3,7,9,18,0,0,4,1,2,0,3,1,6,5,14,12,5,4,9,7,12,0,0,0,2,0,1,2,1,0,6,14,0,0,3,2,1,0,7,3,10,5,1854.txt
5,11,6,1,6,6,0,0,0,0,0,0,2,9,0,1,12,4,0,9,0,19,0,2,1,7,20,23,0,0,0,4,1,2,0,0,0,15,0,27,0,21,4,4,0,12,0,0,0,0,0,0,2,3,0,0,30,0,0,5,5,1,0,3,7,18,4,1855.txt
5,11,0,1,6,6,0,0,3,0,0,2,2,9,1,1,7,4,0,5,0,17,0,2,2,6,3,0,5,4,0,4,1,2,0,0,0,0,0,0,4,17,4,14,0,12,0,0,0,2,0,0,2,3,0,0,7,0,0,5,0,1,0,4,0,4,5,1858.txt
9,13,0,0,6,6,0,0,3,2,30,2,2,1,2,1,4,4,0,11,0,0,0,2,0,0,20,15,5,0,0,5,1,0,0,4,0,0,0,13,4,17,8,4,7,3,0,0,0,0,0,0,2,3,0,0,19,0,0,5,0,1,0,4,7,17,12,1860.txt
