0,1,2,3,4,5,6,7,8,9,10,11,12,13,14,15,16,17,18,19,20,21,22,23,24,25,26,27,28,29,30,31,32,33,34,35,36,37,38,39,40,41,42,43,44,45,46,47,48,49,50,51,52,53,54,55,56,57,58,59,60,61,62,63,64,65,66,67,filename
0,0,0,0,0,0,9,7,0,0,27,0,0,0,0,0,0,0,0,7,0,0,30,30,23,29,26,15,29,28,15,22,27,18,28,0,27,24,27,21,9,7,8,8,0,6,7,6,6,7,17,7,0,0,6,23,30,24,0,3,5,8,5,5,3,17,0,0,2.txt
12,30,17,5,2,8,3,3,2,4,3,3,3,3,3,3,9,3,3,13,2,2,2,2,2,2,2,4,2,2,2,3,3,3,3,1,1,1,1,1,3,3,3,3,23,1,1,1,1,1,17,1,7,1,8,1,1,9,18,3,1,11,1,1,2,21,20,12,5.txt
0,0,0,0,0,0,9,7,0,0,27,0,0,0,0,0,0,0,0,7,0,0,30,30,23,29,26,15,29,28,11,22,27,18,28,1,1,1,1,1,9,7,8,8,4,13,12,16,16,9,2,18,20,5,20,19,5,11,21,0,11,11,15,16,3,3,8,4,9.txt
0,0,0,0,0,0,9,7,0,0,27,0,0,0,0,0,0,0,0,7,0,0,30,30,23,29,26,15,29,28,0,22,27,18,28,1,1,1,1,1,9,7,8,8,7,1,1,1,1,1,17,1,1,1,1,1,1,1,1,1,1,1,1,1,1,1,1,1,12.txt
0,0,0,0,0,0,9,7,0,0,27,0,0,0,0,0,0,0,0,7,0,0,30,30,23,29,26,15,29,28,11,22,27,18,28,1,1,1,1,1,9,7,8,8,0,6,6,6,6,6,17,7,0,17,4,14,14,0,0,13,5,9,5,5,3,17,14,9,14.txt
0,0,5,0,22,0,4,4,3,0,2,2,14,2,18,0,0,0,0,9,0,0,30,30,23,29,26,15,29,28,0,22,27,18,28,29,26,23,26,20,9,7,8,8,0,2,2,2,2,2,17,2,22,2,4,2,2,24,0,3,2,11,2,2,3,17,0,0,16.txt
0,0,0,0,0,0,9,7,0,0,27,0,0,0,0,0,0,0,0,7,0,0,30,30,23,29,26,15,29,28,0,22,27,18,28,14,18,19,19,9,9,7,8,8,7,6,7,6,6,7,17,0,0,11,28,2,28,24,24,13,27,11,25,25,3,17,7,6,17.txt
0,0,0,0,0,0,9,7,0,0,27,0,0,0,0,0,0,0,0,7,0,0,30,30,23,29,26,15,29,28,11,22,27,18,28,1,1,1,1,1,9,7,8,8,7,1,1,1,1,1,2,1,0,1,4,1,1,0,0,0,1,11,1,1,3,17,14,4,21.txt
0,0,0,0,0,0,9,7,0,0,27,0,0,0,0,0,0,0,0,7,0,0,30,30,23,29,26,15,29,28,0,22,27,18,28,1,1,1,1,1,9,7,8,8,7,1,1,1,1,1,17,1,1,1,1,1,1,1,1,1,1,1,1,1,1,1,1,1,23.txt
0,0,0,0,0,0,9,7,0,0,27,0,0,0,0,7,0,0,0,7,0,0,30,30,23,29,26,15,29,28,0,22,27,18,28,1,1,1,1,1,9,7,8,8,7,1,1,1,1,1,17,1,4,1,4,1,1,4,4,8,1,11,1,1,11,17,14,4,24.txt
0,0,0,0,0,0,9,7,0,0,27,0,0,0,0,0,0,0,0,11,0,0,30,30,23,29,26,0,29,28,11,0,27,0,28,29,26,23,26,20,9,7,8,8,0,6,6,6,6,6,17,7,0,6,4,23,30,0,0,0,5,2,5,5,3,7,0,0,26.txt
0,0,0,0,0,0,9,7,0,0,27,0,0,0,0,0,0,0,0,7,0,0,30,30,23,29,26,15,29,28,0,22,27,18,28,1,1,1,1,1,0,0,0,0,7,1,1,1,1,1,17,1,2,1,2,1,1,13,22,8,1,11,1,1,3,17,14,4,28.txt
0,0,0,0,0,0,9,7,0,0,27,0,0,0,0,0,0,0,0,7,0,0,0,0,0,0,0,8,0,0,0,9,0,6,0,29,26,23,26,20,9,7,8,8,0,6,6,6,6,6,17,7,0,0,4,23,30,0,0,0,5,11,5,5,3,17,0,0,30.txt
26,15,3,29,4,21,14,11,5,29,14,20,16,20,26,18,24,19,19,17,6,5,10,10,14,6,21,26,6,23,21,6,19,10,15,17,21,19,6,27,17,17,14,29,11,15,13,15,15,8,25,8,15,20,25,25,20,27,27,11,30,14,19,18,2,11,17,14,32.txt
0,0,0,0,0,0,9,7,0,0,27,0,0,0,0,7,0,0,0,11,0,0,30,30,23,29,26,22,29,28,11,10,27,7,28,14,15,19,2,16,9,7,8,8,19,18,16,18,19,29,17,20,13,30,27,18,27,18,10,3,0,11,0,6,10,17,22,10,34.txt
0,0,0,0,0,0,9,7,0,0,27,0,0,0,0,7,0,0,0,11,0,0,30,30,23,29,26,15,29,28,15,22,27,18,28,29,26,23,26,20,9,7,8,8,10,18,18,19,21,18,17,13,11,30,4,30,6,12,12,3,0,11,0,6,5,17,27,26,36.txt
0,0,0,0,0,0,9,7,0,0,27,0,0,0,0,0,0,0,0,7,0,0,30,30,23,29,26,15,29,28,0,22,27,18,28,1,1,1,1,1,9,7,8,8,7,1,1,1,1,1,17,1,1,1,1,1,1,1,1,1,1,1,1,1,1,1,1,1,40.txt
0,0,0,0,0,0,9,7,0,0,4,0,0,0,0,0,0,0,0,11,0,0,30,30,23,29,26,12,29,28,11,22,27,18,28,29,26,23,26,20,9,7,8,8,0,6,7,6,6,7,6,7,0,0,4,23,30,25,0,4,5,11,5,5,3,3,0,0,41.txt
0,0,0,0,0,0,9,7,0,0,27,0,0,0,0,0,0,0,0,7,0,0,30,30,23,29,26,15,29,28,0,22,27,18,28,1,1,1,1,1,10,8,9,9,7,1,1,1,1,1,17,1,1,1,1,1,1,1,1,1,1,1,1,1,1,1,1,1,49.txt
0,0,0,0,0,0,9,7,0,0,27,0,0,0,0,0,0,0,0,7,0,0,30,30,23,29,26,15,29,28,11,22,27,18,28,1,1,1,1,1,9,7,8,8,0,6,6,6,6,6,4,7,0,0,4,23,30,0,0,16,5,11,5,5,3,17,0,0,53.txt
0,0,0,0,0,0,9,7,0,0,27,0,0,0,0,0,0,0,0,7,0,0,30,30,23,29,26,15,29,28,0,22,27,18,28,29,26,23,26,20,9,7,8,8,0,6,6,6,6,6,17,7,0,0,4,23,30,0,0,4,5,11,5,5,3,17,0,0,55.txt
0,0,0,0,0,0,9,7,0,0,27,0,0,0,0,0,0,0,0,7,0,0,30,30,23,29,26,15,29,28,11,22,27,18,28,1,1,1,1,1,9,7,8,8,7,1,1,1,1,1,2,1,0,1,4,1,1,0,0,0,1,11,1,1,3,17,14,4,57.txt
0,0,0,0,0,0,9,7,0,0,27,0,0,0,0,0,0,0,0,7,0,0,30,30,23,29,26,15,29,28,0,22,27,18,28,1,1,1,1,1,9,7,8,8,7,1,1,1,1,1,17,1,1,1,1,1,1,1,1,1,1,1,1,1,1,1,1,1,60.txt
0,0,0,0,0,0,9,7,0,0,27,0,0,0,0,0,0,0,0,11,12,13,16,13,1,1,25,0,1,1,26,1,23,29,6,0,0,25,28,0,4,10,10,17,0,6,6,6,6,6,17,7,0,0,4,23,30,0,0,3,5,11,5,5,3,10,0,2,61.txt
0,0,0,0,0,0,9,7,0,0,27,0,20,0,8,0,0,0,4,7,0,0,30,30,23,29,26,15,29,28,0,22,27,18,28,1,1,1,1,1,9,7,8,8,7,1,1,1,1,1,17,1,1,1,1,1,1,1,1,1,1,1,1,1,1,1,1,1,63.txt
0,2,0,0,0,0,9,7,0,0,27,0,0,0,0,7,0,0,0,11,12,13,15,15,18,12,25,0,3,4,26,7,23,5,10,29,26,23,26,20,22,16,11,17,4,6,6,6,6,6,6,7,0,6,4,17,14,0,23,3,5,11,5,5,3,11,14,14,65.txt
12,2,1,15,2,24,22,18,15,8,9,10,7,1,17,18,3,12,1,3,12,13,15,15,8,12,24,4,7,4,27,4,13,5,10,1,1,1,1,1,3,3,3,3,4,10,9,10,10,12,17,9,7,5,8,8,5,9,14,0,10,11,11,12,2,8,20,25,68.txt
0,0,0,0,0,0,9,7,0,0,27,0,0,0,0,7,0,0,0,7,0,0,30,30,23,29,26,12,29,28,0,22,27,18,28,0,27,24,27,21,9,7,8,8,3,6,6,6,6,6,2,7,0,5,4,14,5,0,23,0,4,11,20,23,4,3,27,3,71.txt
0,0,5,0,0,0,4,9,3,28,2,2,2,2,2,0,0,0,0,7,0,0,30,30,23,29,26,15,29,28,0,22,27,18,28,1,1,1,1,1,9,7,8,8,23,10,9,10,10,3,17,3,2,25,2,14,13,9,15,3,11,11,11,12,3,17,14,5,72.txt
0,0,0,0,0,0,9,7,0,0,27,0,0,0,0,0,0,0,0,7,0,0,30,30,23,29,26,15,29,28,0,22,27,18,28,1,1,1,1,1,0,0,0,0,7,1,1,1,1,1,17,1,1,1,1,1,1,1,1,1,1,1,1,1,1,1,1,1,76.txt
0,0,0,0,0,0,28,28,0,0,27,0,0,0,0,0,0,0,0,11,0,0,30,30,23,29,26,0,29,28,11,10,27,7,28,4,4,4,4,4,9,7,8,8,4,6,6,6,6,6,4,7,0,15,3,6,8,0,0,3,5,0,5,5,3,17,4,26,78.txt
0,0,0,0,0,0,9,7,0,0,27,0,0,0,0,7,0,0,0,7,0,0,30,30,23,29,26,15,29,28,0,22,27,18,28,1,1,1,1,1,9,7,8,8,0,6,6,6,6,6,2,7,0,15,4,6,6,0,0,3,5,11,5,5,4,17,14,5,81.txt
0,0,0,0,0,0,9,7,0,0,27,0,0,0,0,0,0,0,0,7,0,0,30,30,23,29,26,15,29,28,11,22,27,18,28,29,26,23,26,20,0,0,0,0,0,6,6,6,6,6,17,7,0,0,0,23,30,0,0,13,5,11,5,5,3,7,0,0,84.txt
0,0,0,0,0,0,9,7,0,0,27,0,0,0,0,0,0,0,0,7,0,0,30,30,23,29,26,15,29,28,0,22,27,18,28,1,1,1,1,1,9,7,8,8,7,1,1,1,1,1,17,1,1,1,1,1,1,1,1,1,1,1,1,1,1,1,1,1,86.txt
0,0,0,0,0,0,9,7,0,0,27,0,0,0,0,0,0,0,0,7,0,0,30,30,23,29,26,15,29,28,11,22,27,18,28,1,1,1,1,1,9,7,8,8,7,6,6,6,6,6,17,7,0,0,4,18,14,0,0,11,5,11,5,5,3,17,8,9,89.txt
0,0,0,0,0,0,9,7,0,0,27,0,0,0,0,0,0,0,0,7,0,0,30,30,23,29,26,15,29,28,0,22,27,18,28,1,1,1,1,1,9,7,8,8,7,1,1,1,1,1,17,1,0,1,4,1,1,24,0,13,1,11,1,1,3,17,0,0,90.txt
0,0,0,0,0,0,9,7,0,0,27,0,0,0,0,0,0,0,0,7,0,0,30,30,23,29,26,15,29,28,0,22,27,18,28,1,1,1,1,1,0,0,0,0,7,1,1,1,1,1,17,1,1,1,1,1,1,1,1,1,1,1,1,1,1,1,1,1,92.txt
0,0,0,0,0,0,28,28,0,0,27,0,0,0,0,0,0,0,0,11,0,0,30,30,23,29,26,0,29,28,11,0,27,0,28,4,4,4,4,4,9,7,8,8,0,6,6,6,6,6,6,7,0,0,3,23,30,0,0,5,5,0,5,5,12,22,17,0,95.txt
0,0,0,0,0,0,9,7,0,0,27,0,0,0,0,0,0,0,0,7,0,0,30,30,23,29,15,12,29,11,0,22,27,18,28,1,1,1,1,1,8,6,7,7,10,5,5,5,5,5,17,5,4,30,14,7,6,4,4,3,8,11,8,10,3,17,7,4,97.txt
0,0,0,0,0,0,9,7,0,0,27,0,0,0,0,0,0,0,0,7,0,0,30,30,23,29,26,15,29,28,0,22,27,18,28,29,26,23,26,20,9,7,8,8,0,6,6,6,6,6,17,7,0,0,4,23,30,0,0,13,0,8,0,6,3,17,0,0,98.txt
0,0,0,0,0,0,9,7,0,0,27,0,0,0,0,0,0,0,0,7,0,0,30,30,23,29,26,15,29,28,0,22,27,18,28,1,1,1,1,1,9,7,8,8,7,1,1,1,1,1,17,1,1,1,1,1,1,1,1,1,1,1,1,1,1,1,1,1,100.txt
0,0,0,0,0,0,9,7,0,0,27,0,0,0,0,0,0,0,0,7,0,0,30,30,23,29,26,12,29,28,11,22,27,18,28,29,26,23,26,20,9,7,8,8,0,15,13,15,15,8,17,8,10,15,11,6,6,27,27,0,30,11,19,13,3,17,14,3,102.txt
0,0,0,0,0,0,9,7,0,0,27,0,0,0,0,0,0,0,0,7,0,0,30,30,23,29,26,15,29,28,11,22,27,18,28,1,1,1,1,1,9,7,8,8,0,6,6,6,6,6,2,7,0,0,4,23,30,0,0,0,5,11,5,5,3,17,0,0,105.txt
0,0,0,0,0,0,9,7,0,0,27,0,0,0,0,0,0,0,0,7,0,0,30,30,23,29,26,15,29,28,0,22,27,18,28,1,1,1,1,1,10,8,9,9,7,1,1,1,1,1,17,1,1,1,1,1,1,1,1,1,1,1,1,1,1,1,1,1,108.txt
0,0,0,0,0,0,9,7,0,0,27,0,0,0,0,0,0,0,0,7,0,0,30,30,23,29,26,15,29,28,0,22,27,18,28,1,1,1,1,1,9,7,8,8,7,2,2,2,2,2,17,2,1,2,1,2,2,1,1,1,2,1,2,2,1,1,1,1,110.txt
0,0,0,0,0,0,9,7,0,0,27,0,0,0,0,0,0,0,0,7,0,0,30,30,23,29,26,15,29,28,0,22,27,18,28,1,1,1,1,1,9,7,8,8,7,1,1,1,1,1,17,1,1,1,1,1,1,1,1,1,1,1,1,1,1,1,1,1,112.txt
0,0,0,0,0,0,9,7,0,0,27,0,0,0,0,0,0,0,0,7,0,0,30,30,23,29,26,12,29,28,0,22,27,18,28,1,1,1,1,1,9,7,8,8,4,6,6,6,6,6,2,7,0,15,4,6,6,0,0,0,5,11,5,5,3,17,14,4,114.txt
0,0,0,0,0,0,9,7,0,0,27,0,0,0,0,7,0,0,0,11,0,0,30,30,23,29,26,12,29,28,11,0,27,0,28,29,26,23,26,20,9,7,8,8,0,6,6,6,6,6,4,7,0,7,4,6,6,0,0,16,5,11,5,5,4,17,8,11,116.txt
0,0,0,0,0,0,9,7,0,0,27,0,0,0,0,0,0,0,0,7,0,0,30,30,23,29,26,15,29,28,0,22,27,18,28,1,1,1,1,1,9,7,8,8,7,1,1,1,1,1,17,1,1,1,1,1,1,1,1,1,1,1,1,1,1,1,1,1,118.txt
12,2,1,15,2,12,22,18,13,8,1,1,7,1,17,21,11,14,1,19,22,26,16,16,20,12,25,9,7,4,26,4,23,19,10,1,1,1,1,1,3,3,3,5,21,5,5,5,5,5,6,5,4,0,28,29,14,4,4,4,4,11,20,23,13,13,21,17,121.txt
0,0,0,0,0,0,9,7,0,0,27,0,0,0,0,0,0,0,0,7,0,0,30,30,23,29,26,0,29,28,11,0,27,0,28,0,0,25,28,0,9,7,8,8,3,13,12,16,16,15,17,17,9,5,25,23,30,11,16,0,9,11,14,26,3,17,0,0,123.txt
0,0,0,0,0,0,9,7,0,0,27,0,0,0,0,0,0,0,0,7,0,0,30,30,23,29,26,5,29,28,15,22,27,18,28,1,1,1,1,1,9,7,8,8,10,5,5,5,5,5,17,5,4,15,4,6,6,4,4,3,5,11,5,5,3,17,27,9,124.txt
0,0,0,0,0,0,9,7,0,0,27,0,0,0,0,0,0,0,0,7,0,0,30,30,23,29,26,15,29,28,0,22,27,18,28,1,1,1,1,1,0,0,0,0,7,1,1,1,1,1,17,1,1,1,1,1,1,1,1,1,1,1,1,1,1,1,1,1,126.txt
0,0,0,0,0,0,9,7,0,0,27,0,0,0,0,0,0,0,0,7,0,0,30,30,23,29,26,15,29,28,0,22,27,18,28,1,1,1,1,1,9,7,8,8,7,1,1,1,1,1,17,1,0,1,28,1,1,0,0,16,1,11,1,1,3,17,4,5,128.txt
0,0,0,0,0,0,9,7,0,0,27,0,0,0,0,0,0,0,0,7,0,0,30,30,23,29,26,15,29,28,0,22,27,18,28,1,1,1,1,1,0,0,0,0,7,1,1,1,1,1,17,1,1,1,1,1,1,1,1,1,1,1,1,1,1,1,1,1,130.txt
0,0,0,0,0,0,9,7,0,0,27,0,0,0,0,0,0,0,0,7,0,0,30,30,23,29,26,15,29,28,0,22,27,18,28,1,1,1,1,1,9,7,8,8,7,1,1,1,1,1,2,1,1,1,1,1,1,1,1,1,1,1,1,1,1,1,1,1,132.txt
0,0,0,0,0,0,9,7,0,0,27,0,0,0,0,0,0,0,0,7,0,0,30,30,23,29,26,15,29,28,0,22,27,18,28,1,1,1,1,1,9,7,8,8,7,1,1,1,1,1,17,1,1,1,1,1,1,1,1,1,1,1,1,1,1,1,1,1,135.txt
0,0,0,0,0,0,9,7,0,0,27,0,0,0,0,0,0,0,0,11,0,0,30,30,23,29,26,15,29,28,0,22,27,18,28,27,3,27,15,3,9,7,8,8,7,2,2,2,2,2,17,2,0,2,5,2,2,24,0,23,2,21,2,2,3,7,14,6,137.txt
0,0,0,0,0,0,9,7,0,0,27,0,0,0,0,0,0,0,0,7,0,0,30,30,23,29,26,15,29,28,0,22,27,18,28,1,1,1,1,1,9,7,8,8,7,1,1,1,1,1,17,1,1,1,1,1,1,1,1,1,1,1,1,1,1,1,1,1,141.txt
0,0,0,0,0,0,9,7,0,0,27,0,0,0,0,0,0,0,0,7,0,0,30,30,23,29,26,15,29,28,11,22,27,18,28,1,1,1,1,1,9,7,8,8,7,1,1,1,1,1,17,1,0,1,4,1,1,0,0,0,1,11,1,1,3,17,0,0,144.txt
0,0,0,0,0,0,9,7,0,0,27,0,0,0,0,0,0,0,0,7,0,0,30,30,23,29,26,15,29,28,11,22,27,18,28,1,1,1,1,1,9,7,8,8,7,10,9,10,10,13,17,9,7,15,8,6,6,9,15,16,10,11,11,12,3,17,14,4,145.txt
0,0,0,0,0,0,9,7,0,0,27,0,0,0,0,0,0,0,0,7,0,0,30,30,23,29,26,15,29,28,0,22,27,18,28,1,1,1,1,1,0,0,0,0,7,1,1,1,1,1,17,1,1,1,1,1,1,1,1,1,1,1,1,1,1,1,1,1,147.txt
0,0,0,0,0,0,9,7,0,0,27,0,0,0,0,0,0,0,0,7,0,0,30,30,23,29,26,15,29,28,11,22,27,18,28,1,1,1,1,1,9,7,8,8,0,6,6,6,6,6,2,7,0,0,4,23,30,0,0,4,5,11,5,5,3,17,0,0,149.txt
0,0,0,0,0,0,9,7,0,0,27,0,0,0,0,0,0,0,0,7,0,0,30,30,23,29,26,15,29,28,0,22,27,18,28,1,1,1,1,1,9,7,8,8,7,1,1,1,1,1,17,1,1,1,1,1,1,1,1,1,1,1,1,1,1,1,1,1,151.txt
0,0,0,0,0,0,9,7,0,0,27,0,0,0,0,0,0,0,0,7,0,0,30,30,23,29,26,15,29,28,0,22,27,18,28,1,1,1,1,1,9,7,8,8,7,1,1,1,1,1,17,1,1,1,1,1,1,1,1,1,1,1,1,1,1,1,1,1,154.txt
0,0,0,0,0,0,9,7,0,0,27,0,0,0,0,0,0,0,0,7,0,0,30,30,23,29,26,15,29,28,0,22,27,18,28,1,1,1,1,1,10,8,9,9,7,15,13,15,15,3,17,3,2,5,2,14,14,27,27,13,11,2,3,13,7,7,14,5,156.txt
0,0,0,0,0,0,9,7,0,0,27,0,0,0,0,0,0,0,0,7,0,0,30,30,23,29,26,12,29,28,11,22,27,18,28,29,26,23,26,20,9,7,8,8,0,6,6,6,6,6,17,7,0,0,4,10,5,0,0,0,5,11,5,5,3,17,14,4,158.txt
0,0,0,0,0,0,9,7,0,0,27,0,0,0,0,0,0,0,0,11,0,0,30,30,23,29,26,15,29,28,0,22,27,18,28,29,26,23,26,20,9,7,8,8,7,6,7,6,6,7,17,0,0,30,4,30,6,24,0,27,0,11,0,6,3,17,14,4,160.txt
0,0,0,0,0,0,9,7,0,0,27,0,0,0,0,0,0,0,0,7,0,0,30,30,23,29,26,15,29,28,11,22,27,18,28,1,1,1,1,1,9,7,8,8,7,0,0,0,0,0,17,7,0,5,4,23,30,0,0,3,27,11,25,7,3,17,0,0,161.txt
0,0,0,0,0,0,9,7,0,0,27,0,0,0,0,0,0,0,0,11,0,0,30,30,23,29,26,0,29,28,11,0,27,0,28,29,26,23,26,20,9,7,8,8,0,6,6,6,6,6,6,7,0,0,4,23,30,0,0,3,5,11,5,5,3,17,0,0,163.txt
0,0,0,0,0,0,9,7,0,0,27,0,0,0,0,0,0,0,0,7,0,0,30,30,23,29,26,15,29,28,0,22,27,18,28,1,1,1,1,1,10,8,9,9,7,1,1,1,1,1,17,1,1,1,1,1,1,1,1,1,1,1,1,1,1,1,1,1,165.txt
0,0,0,0,0,0,9,7,0,0,27,0,0,0,0,0,0,0,0,7,12,13,15,15,8,12,25,15,3,4,26,1,23,29,4,1,1,1,1,1,1,3,14,17,0,6,6,6,6,6,17,7,0,0,3,8,5,0,0,0,4,0,20,23,3,11,5,14,167.txt
0,0,0,0,0,0,9,7,0,0,27,0,0,0,0,0,0,0,0,7,0,0,30,30,23,29,26,15,29,28,0,22,27,18,28,1,1,1,1,1,0,0,0,0,7,1,1,1,1,1,17,1,1,1,1,1,1,1,1,1,1,1,1,1,1,1,1,1,169.txt
0,0,0,0,0,0,9,7,0,0,27,0,0,0,0,0,0,0,0,7,0,0,30,30,23,29,26,15,29,28,0,22,27,18,28,1,1,1,1,1,9,7,8,8,7,1,1,1,1,1,17,1,1,1,1,1,1,1,1,1,1,1,1,1,1,1,1,1,171.txt
0,0,0,0,0,0,9,7,0,0,27,0,0,0,0,0,0,0,0,7,0,0,30,30,23,29,26,8,29,28,11,22,27,18,28,1,1,1,1,1,9,7,8,8,0,6,6,6,6,6,17,7,0,0,4,23,30,0,0,0,5,11,5,5,3,17,0,0,173.txt
0,0,0,0,0,0,9,7,0,0,27,0,0,0,0,0,0,0,0,7,0,0,30,30,23,29,26,15,29,28,0,22,27,18,28,1,1,1,1,1,9,7,8,8,7,1,1,1,1,1,17,1,1,1,1,1,1,1,1,1,1,1,1,1,1,1,1,1,175.txt
0,0,0,0,0,0,9,7,0,0,27,0,0,0,0,0,0,0,0,7,0,0,30,30,23,29,26,15,29,28,0,22,27,18,28,1,1,1,1,1,9,7,8,8,7,1,1,1,1,1,17,1,1,1,1,1,1,1,1,1,1,1,1,1,1,1,1,1,177.txt
0,0,0,0,0,0,9,7,0,0,27,0,0,0,0,0,0,0,0,7,0,0,30,30,23,29,26,15,29,28,0,22,27,18,28,1,1,1,1,1,9,7,8,8,7,1,1,1,1,1,17,1,1,1,1,1,1,1,1,1,1,1,1,1,1,1,1,1,179.txt
0,0,0,0,0,0,9,7,0,0,27,0,0,0,0,0,0,0,0,7,0,0,30,30,23,29,26,15,29,28,0,22,27,18,28,1,1,1,1,1,10,8,30,9,7,1,1,1,1,1,17,1,1,1,1,1,1,1,1,1,1,1,1,1,1,1,1,1,182.txt
0,0,0,0,0,0,9,7,0,0,27,0,0,0,0,0,0,0,0,7,0,0,30,30,23,29,26,15,29,28,0,22,27,18,28,1,1,1,1,1,9,7,8,8,7,1,1,1,1,1,17,1,1,1,1,1,1,1,1,1,1,1,1,1,1,1,1,1,184.txt
0,0,0,0,0,0,9,7,0,0,27,0,0,0,0,0,0,0,0,7,0,0,30,30,23,29,26,15,29,28,11,22,27,18,28,1,1,1,1,1,0,0,0,0,7,1,1,1,1,1,17,1,2,1,2,1,1,13,15,0,1,2,1,1,3,22,14,3,188.txt
0,0,0,0,0,0,9,7,0,0,27,0,0,0,0,0,0,0,0,11,0,0,30,30,23,29,26,5,29,28,11,10,27,7,28,0,0,25,28,0,9,7,8,8,10,19,16,19,19,29,5,13,27,23,14,18,14,14,10,24,5,11,5,5,3,17,27,4,189.txt
0,0,0,0,0,0,9,7,0,0,27,0,0,0,0,0,0,0,0,7,0,0,30,30,23,29,26,15,29,28,0,22,27,18,28,1,1,1,1,1,9,7,8,8,7,1,1,1,1,1,17,1,0,1,28,1,1,0,0,4,1,12,1,1,3,17,0,0,191.txt
18,2,25,21,1,28,13,11,17,25,6,29,28,30,12,25,17,12,17,20,18,19,15,15,18,17,18,27,19,17,19,16,20,28,24,29,26,23,26,20,22,13,11,22,4,10,9,10,10,23,17,29,20,22,20,29,14,9,22,3,19,11,11,12,22,8,20,25,194.txt
0,0,0,0,0,0,9,7,0,0,27,0,0,0,0,0,0,0,0,7,0,0,30,30,23,29,26,15,29,28,0,22,27,18,28,1,1,1,1,1,0,0,0,0,7,1,1,1,1,1,17,1,1,1,1,1,1,1,1,1,1,1,1,1,1,1,1,1,197.txt
0,0,0,0,0,0,9,7,0,0,27,0,0,0,0,0,0,0,0,7,0,0,30,30,23,29,26,15,29,28,0,22,27,18,28,1,1,1,1,1,9,7,8,8,7,1,1,1,1,1,17,1,1,1,1,1,1,1,1,1,1,1,1,1,1,1,1,1,199.txt
0,0,0,0,0,0,9,7,0,0,27,0,0,0,0,7,0,0,0,11,0,0,30,30,23,29,26,5,29,28,15,0,27,0,28,17,15,19,25,16,9,7,8,8,0,6,6,6,6,6,5,7,0,25,3,10,27,0,0,28,27,11,26,8,10,17,22,10,203.txt
0,0,0,0,0,0,9,7,0,0,27,0,0,0,0,0,0,0,0,7,0,0,30,30,23,29,26,15,29,28,0,22,27,18,28,1,1,1,1,1,9,7,8,8,7,27,29,28,18,24,17,22,1,3,1,2,22,1,1,1,30,1,10,11,1,1,1,1,204.txt
0,0,0,0,0,0,9,7,0,0,27,0,0,0,0,7,0,0,0,11,0,0,30,30,23,29,26,12,29,28,11,10,27,7,28,4,4,4,4,10,9,7,8,8,0,6,6,6,6,6,17,7,0,0,3,23,30,0,0,3,5,11,5,5,10,17,0,0,209.txt
0,0,0,0,0,0,9,7,0,0,27,0,0,0,0,0,0,0,0,7,0,0,30,30,23,29,26,15,29,28,0,22,27,18,28,1,1,1,1,1,9,7,8,8,7,1,1,1,1,1,17,1,0,1,4,1,1,0,0,0,1,11,1,1,3,17,0,0,210.txt
0,0,0,0,0,0,9,7,0,0,27,0,0,0,0,0,0,0,0,7,0,0,30,30,23,29,26,15,29,28,0,22,27,18,28,1,1,1,1,1,0,0,0,0,7,1,1,1,1,1,17,1,1,1,1,1,1,1,1,1,1,1,1,1,1,1,1,1,212.txt
0,0,0,0,0,0,9,7,0,0,27,0,0,0,0,0,0,0,0,7,0,0,30,30,23,29,26,15,29,28,11,22,27,18,28,29,26,23,26,20,9,7,8,8,0,6,6,6,6,6,4,7,0,0,4,6,6,0,0,3,5,11,5,5,3,17,14,3,214.txt
12,2,1,24,0,0,3,3,17,6,27,0,20,0,8,5,5,4,4,7,6,5,10,10,7,19,21,4,23,27,29,28,20,19,24,11,16,5,6,14,3,25,3,3,20,10,9,10,10,28,27,28,30,15,30,6,6,9,19,14,11,23,11,12,28,8,20,25,217.txt
0,0,0,0,0,0,9,7,0,0,27,0,0,0,0,0,0,0,0,11,0,0,30,30,23,29,26,15,29,28,0,22,27,18,28,29,26,23,26,20,9,7,8,8,10,2,2,2,2,2,17,2,2,2,2,2,2,7,7,3,2,11,2,2,3,17,0,0,219.txt
0,0,0,0,0,0,9,7,0,0,27,0,0,0,0,0,0,0,0,11,0,0,30,30,23,29,26,15,29,28,0,22,27,18,28,27,3,27,15,3,0,0,0,0,7,2,2,2,2,2,17,2,1,2,1,2,2,1,1,1,2,1,2,2,1,1,1,1,220.txt
0,0,0,0,0,0,9,7,0,0,27,0,0,0,0,0,0,0,0,7,0,0,30,30,23,29,26,15,29,28,0,22,27,18,28,1,1,1,1,1,9,7,8,8,7,1,1,1,1,1,17,1,1,1,1,1,1,1,1,1,1,1,1,1,1,1,1,1,222.txt
0,0,0,0,0,0,9,7,0,0,27,0,0,0,0,0,0,0,0,7,0,0,30,30,23,29,26,15,29,28,0,22,27,18,28,29,26,23,26,20,9,7,8,8,7,2,2,2,2,2,17,2,1,2,1,2,2,1,1,1,2,1,2,2,1,1,1,1,225.txt
0,0,0,0,0,0,9,7,0,0,27,0,0,0,0,0,0,0,0,7,0,0,30,30,23,29,26,15,29,28,0,22,27,18,28,1,1,1,1,1,9,7,8,8,7,1,1,1,1,1,17,1,0,1,4,1,1,0,0,0,1,11,1,1,3,17,14,3,227.txt
0,0,0,0,0,0,9,7,0,0,27,0,0,0,0,0,0,0,0,7,0,0,30,30,23,29,26,15,29,28,0,22,27,18,28,1,1,1,1,1,9,7,8,8,7,1,1,1,1,1,17,1,1,1,1,1,1,1,1,1,1,1,1,1,1,1,1,1,229.txt
0,0,0,0,0,0,9,7,0,0,27,0,0,0,0,0,0,0,0,7,0,0,30,30,23,29,26,15,29,28,0,22,27,18,28,1,1,1,1,1,9,7,8,8,7,1,1,1,1,1,17,1,1,1,1,1,1,1,1,1,1,1,1,1,1,1,1,1,231.txt
0,0,0,0,0,0,9,7,0,0,27,0,0,0,0,0,0,0,0,7,6,5,10,10,7,12,25,0,7,4,26,1,23,29,4,1,1,1,1,1,1,3,12,17,0,6,6,6,6,6,2,7,0,7,4,23,30,0,0,0,5,11,5,5,13,11,0,2,236.txt
0,0,0,0,0,0,9,7,0,0,27,0,0,0,0,0,0,0,0,7,0,0,30,30,23,29,26,12,29,28,0,22,27,18,28,0,27,24,27,21,9,7,8,8,4,6,7,6,6,7,4,7,0,15,4,6,6,24,0,3,4,11,20,23,3,17,8,4,241.txt
0,0,0,0,0,0,9,7,0,0,27,0,0,0,0,0,0,0,0,9,0,0,30,30,23,29,26,15,29,28,0,22,27,18,28,29,26,23,26,20,9,7,8,8,7,2,2,2,2,2,17,2,1,2,1,2,2,1,1,1,2,1,2,2,1,1,1,1,242.txt
0,0,0,0,0,0,9,7,0,0,27,0,0,0,0,0,0,0,0,7,0,0,30,30,23,29,26,15,29,28,11,22,27,18,28,1,1,1,1,1,9,7,8,8,7,1,1,1,1,1,17,1,0,1,5,1,1,0,0,3,1,11,1,1,3,17,22,9,245.txt
0,0,0,0,0,0,9,7,0,0,4,0,0,0,0,0,0,0,0,7,0,0,30,30,23,29,26,15,29,28,11,22,27,18,28,1,1,1,1,1,9,7,8,8,7,1,1,1,1,1,0,1,0,1,4,1,1,0,0,3,1,11,1,1,3,17,0,0,247.txt
0,0,0,0,0,0,9,7,0,0,27,0,0,0,0,0,0,0,0,7,0,0,30,30,23,29,26,15,29,28,11,22,27,18,28,13,15,5,2,16,9,7,8,8,10,19,15,19,17,19,17,13,13,30,28,30,6,14,9,3,25,11,28,8,3,17,4,6,249.txt
0,0,0,0,0,0,9,7,0,0,27,0,0,0,0,0,0,0,0,7,0,0,30,30,23,29,26,15,29,28,0,22,27,18,28,1,1,1,1,1,9,7,8,8,7,1,1,1,1,1,17,1,1,1,1,1,1,1,1,1,1,1,1,1,1,1,1,1,250.txt
0,0,0,0,0,0,9,7,0,0,27,0,0,0,0,0,0,0,0,7,0,0,30,30,23,29,26,15,29,28,0,22,27,18,28,1,1,1,1,1,9,7,8,8,7,1,1,1,1,1,17,1,1,1,1,1,1,1,1,1,1,1,1,1,1,1,1,1,252.txt
0,2,1,0,0,0,9,7,0,0,27,0,0,0,0,0,0,0,0,7,6,5,10,10,7,12,1,15,7,4,26,1,23,29,10,1,1,1,1,1,3,3,3,3,7,5,5,5,5,5,17,5,4,0,4,23,30,4,4,3,5,11,5,5,13,11,16,2,256.txt
0,0,0,0,0,0,9,7,0,0,27,0,0,0,0,0,0,0,0,7,0,0,30,30,23,29,26,15,29,28,0,22,27,18,28,1,1,1,1,1,9,7,8,8,7,6,6,6,6,6,17,7,0,0,28,23,30,0,0,4,25,11,28,0,3,17,0,0,258.txt
0,0,0,0,0,0,9,7,0,0,27,0,0,0,0,0,0,0,0,7,0,0,0,0,0,0,0,2,0,0,0,9,0,6,0,1,1,1,1,1,9,7,8,8,1,1,1,1,1,1,17,1,1,1,1,1,1,1,1,1,1,1,1,1,1,1,1,1,260.txt
0,0,0,0,0,0,9,7,0,0,27,0,0,0,0,0,0,0,0,7,0,0,30,30,23,29,26,15,29,28,0,22,27,18,28,1,1,1,1,1,9,7,8,8,7,1,1,1,1,1,17,1,0,1,4,1,1,0,0,3,1,11,1,1,3,3,0,0,261.txt
0,0,0,0,0,0,9,7,0,0,27,0,0,0,0,0,0,0,0,7,0,0,30,30,23,29,26,15,29,28,0,22,27,18,28,1,1,1,1,1,9,7,8,8,7,2,2,2,2,2,17,2,1,2,1,2,2,1,1,1,2,1,2,2,1,1,1,1,264.txt
0,0,0,0,0,0,9,7,0,0,27,0,0,0,0,0,0,0,0,7,0,0,30,30,23,29,26,15,29,28,0,22,27,18,28,1,1,1,1,1,10,8,17,9,7,1,1,1,1,1,17,1,1,1,1,1,1,1,1,1,1,1,1,1,1,1,1,1,269.txt
0,0,0,0,0,0,9,7,0,0,27,0,0,0,0,0,0,0,0,7,0,0,30,30,23,29,26,15,29,28,0,22,27,18,28,1,1,1,1,1,0,0,0,0,7,1,1,1,1,1,17,1,1,1,1,1,1,1,1,1,1,1,1,1,1,1,1,1,272.txt
0,0,0,0,0,0,9,7,0,0,27,0,0,0,0,0,0,0,0,7,0,0,30,30,23,29,26,15,29,28,0,22,27,18,28,1,1,1,1,1,0,0,0,0,7,1,1,1,1,1,17,1,1,1,1,1,1,1,1,1,1,1,1,1,1,1,1,1,274.txt
0,0,0,0,0,0,9,7,0,0,4,0,0,0,0,7,0,0,0,11,0,0,30,30,23,29,26,5,29,28,11,10,27,7,28,0,0,25,28,0,9,7,8,8,0,6,6,6,6,6,1,7,0,0,13,23,30,0,0,6,21,8,4,23,4,17,0,0,276.txt
0,0,0,0,0,0,9,7,0,0,4,0,0,0,0,0,0,0,0,7,0,0,30,30,23,29,26,15,29,28,0,22,27,18,28,1,1,1,1,1,9,7,8,8,7,2,2,2,2,2,0,2,1,2,1,2,2,1,1,1,2,1,2,2,1,1,1,1,280.txt
0,0,0,0,0,0,9,7,0,0,27,0,0,0,0,0,0,0,0,7,0,0,30,30,23,29,26,15,29,28,0,22,27,18,28,1,1,1,1,1,0,0,0,0,7,1,1,1,1,1,17,1,1,1,1,1,1,1,1,1,1,1,1,1,1,1,1,1,282.txt
0,0,0,0,0,0,9,7,0,0,27,0,0,0,0,0,0,0,0,11,0,0,30,30,23,29,26,12,29,28,0,22,27,18,28,13,29,5,19,25,9,7,8,8,10,19,15,19,17,29,13,13,11,15,28,6,6,14,9,3,5,11,5,5,3,17,14,4,283.txt
0,0,0,0,0,0,9,7,0,0,27,0,0,0,0,0,0,0,0,7,0,0,30,30,23,29,26,15,29,28,0,22,27,18,28,1,1,1,1,1,9,7,8,8,7,1,1,1,1,1,17,1,1,1,1,1,1,1,1,1,1,1,1,1,1,1,1,1,284.txt
0,0,0,0,0,0,9,7,0,0,27,0,0,0,0,0,0,0,0,7,0,0,30,30,23,29,26,12,29,28,11,22,27,18,28,1,1,1,1,1,9,7,8,8,0,6,6,6,6,6,17,7,0,7,4,23,30,0,0,0,5,11,5,5,3,17,0,0,286.txt
0,0,0,0,0,0,9,7,0,0,27,0,0,0,0,7,0,0,0,11,0,0,30,30,23,29,26,12,29,28,11,10,27,7,28,29,26,23,26,20,9,7,8,8,0,6,6,6,6,6,17,7,0,0,4,10,17,0,0,4,5,11,5,5,10,17,14,4,288.txt
0,0,0,0,0,0,9,7,0,0,27,0,0,0,0,0,0,0,0,11,0,0,30,30,23,29,26,0,29,28,0,0,27,0,28,29,26,23,26,20,9,7,8,8,0,6,6,6,6,6,17,7,0,15,4,6,6,0,0,0,5,11,5,5,3,17,14,4,290.txt
0,0,0,0,0,0,9,7,0,0,27,0,0,0,0,0,0,0,0,7,0,0,30,30,23,29,26,15,29,28,15,22,27,18,28,1,1,1,1,1,9,7,8,8,7,1,1,1,1,1,17,1,1,1,1,1,1,1,1,1,1,1,1,1,1,1,1,1,293.txt
0,0,0,0,0,0,9,7,0,0,4,0,0,0,0,7,0,0,0,11,0,0,30,30,23,29,26,12,29,28,11,10,27,7,28,4,4,4,4,2,9,7,8,8,0,6,6,6,6,6,1,7,0,0,13,23,30,0,0,4,5,11,5,5,10,17,0,0,295.txt
25,2,17,29,4,12,14,11,17,14,6,29,12,30,28,18,18,16,29,22,6,5,10,10,7,18,13,30,22,26,19,16,16,28,24,17,23,20,14,27,24,13,14,30,0,3,3,3,3,8,20,25,15,10,25,20,14,28,2,11,30,14,17,18,28,15,30,28,297.txt
0,0,0,0,0,0,9,7,0,0,27,0,0,0,0,0,0,0,0,11,0,0,30,30,23,29,26,12,29,28,11,22,27,18,28,29,26,23,26,20,9,7,8,8,0,6,6,6,6,6,6,7,0,0,4,10,5,0,0,0,5,11,5,5,3,17,14,4,300.txt
0,0,0,0,0,0,9,7,0,0,27,0,0,0,0,0,0,0,0,7,0,0,30,30,23,29,26,15,29,28,0,22,27,18,28,1,1,1,1,1,0,0,0,0,7,1,1,1,1,1,17,1,1,1,1,1,1,1,1,1,1,1,1,1,1,1,1,1,303.txt
0,0,0,0,0,0,9,7,0,0,27,0,0,0,0,0,0,0,0,11,0,0,0,0,0,0,0,7,0,0,11,10,0,7,0,29,26,23,26,20,9,7,8,8,0,6,6,6,6,6,6,7,0,0,4,23,30,0,0,0,5,11,5,5,3,17,0,0,305.txt
0,0,0,0,0,0,9,7,0,0,27,0,0,0,0,0,0,0,0,7,0,0,30,30,23,29,14,15,29,10,0,22,27,18,28,1,1,1,1,1,7,5,6,6,7,6,6,6,6,6,17,7,0,0,4,10,5,0,0,0,5,12,5,5,3,17,8,3,307.txt
0,0,0,0,0,0,9,7,0,0,27,0,0,0,0,0,0,0,0,7,0,0,30,30,23,29,26,0,29,28,0,22,27,18,28,1,1,1,1,1,9,7,8,8,4,6,6,6,6,6,17,7,0,15,4,6,6,0,0,0,5,11,5,5,3,17,14,4,311.txt
0,0,0,0,0,0,9,7,0,0,27,0,0,0,0,0,0,0,0,7,0,0,30,30,23,29,26,15,29,28,0,22,27,18,28,1,1,1,1,1,9,7,8,8,7,1,1,1,1,1,17,1,0,1,4,1,1,0,0,3,1,11,1,1,3,17,0,0,313.txt
0,0,0,0,0,0,9,7,0,0,27,0,0,0,0,0,0,0,0,7,0,0,30,30,23,29,26,15,29,28,0,22,27,18,28,1,1,1,1,1,9,7,8,8,7,2,2,2,2,2,17,2,1,2,1,2,2,1,1,1,2,1,2,2,1,1,1,1,318.txt
0,0,0,0,0,0,9,7,0,0,27,0,0,0,0,0,0,0,0,11,0,0,30,30,23,29,26,15,29,28,0,22,27,18,28,29,26,23,26,20,9,7,8,8,7,2,2,2,2,2,17,2,1,2,1,2,2,1,1,1,2,1,2,2,1,1,1,1,320.txt
10,15,3,29,4,14,14,8,14,9,14,30,16,20,21,1,1,1,16,1,24,24,28,1,1,28,21,25,1,12,22,1,11,29,6,17,23,19,13,4,1,30,20,29,16,26,25,29,30,10,25,16,15,25,25,29,17,16,15,5,9,19,14,17,17,18,17,29,322.txt
10,15,3,29,4,14,14,8,14,9,14,30,16,20,21,1,1,1,16,1,24,24,28,1,1,28,21,25,1,12,22,1,11,29,6,17,23,19,13,4,1,30,20,29,16,26,25,29,30,10,25,16,15,25,25,29,17,16,15,5,9,19,14,17,17,18,17,29,323.txt
0,0,0,0,0,0,9,7,0,0,27,0,0,0,0,0,0,0,0,7,0,0,30,30,23,29,26,15,29,28,0,22,27,18,28,1,1,1,1,1,9,7,8,8,7,1,1,1,1,1,17,1,1,1,1,1,1,1,1,1,1,1,1,1,1,1,1,1,324.txt
0,0,0,0,0,0,9,7,0,0,27,0,0,0,0,0,0,0,0,11,0,0,30,30,23,29,26,12,29,28,11,20,27,27,28,18,15,20,14,7,9,7,8,8,10,19,16,19,19,29,17,13,13,20,27,18,14,18,10,3,5,28,5,5,3,17,5,10,326.txt
0,0,0,0,0,0,9,7,0,0,27,0,0,0,0,7,0,0,0,11,0,0,30,30,23,29,26,12,29,28,11,0,27,0,28,29,26,23,26,20,9,7,8,8,0,6,6,6,6,6,17,7,0,0,3,23,30,0,0,3,5,0,5,5,10,17,0,0,328.txt
0,0,0,0,0,0,9,7,0,0,27,0,0,0,0,0,0,0,0,7,0,0,30,30,23,29,26,15,29,28,0,22,27,18,28,1,1,1,1,1,9,7,8,8,7,1,1,1,1,1,17,1,1,1,1,1,1,1,1,1,1,1,1,1,1,1,1,1,329.txt
0,0,0,0,0,0,9,7,0,0,27,0,0,0,0,0,0,0,0,7,0,0,30,30,23,29,26,15,29,28,0,22,27,18,28,1,1,1,1,1,9,7,8,8,7,1,1,1,1,1,17,1,1,1,1,1,1,1,1,1,1,1,1,1,1,1,1,1,333.txt
0,0,0,0,0,0,9,7,0,0,27,0,0,0,0,0,0,0,0,7,0,0,30,30,23,29,26,15,29,28,0,22,27,18,28,1,1,1,1,1,9,7,8,8,7,1,1,1,1,1,17,1,1,1,1,1,1,1,1,1,1,1,1,1,1,1,1,1,335.txt
0,0,0,0,0,0,9,7,0,0,27,0,0,0,0,0,0,0,0,7,0,0,30,30,23,29,26,15,29,28,0,22,27,18,28,1,1,1,1,1,9,7,8,8,7,1,1,1,1,1,17,1,1,1,1,1,1,1,1,1,1,1,1,1,1,1,1,1,337.txt
0,0,0,0,0,0,9,7,0,0,27,0,0,0,0,0,0,0,0,7,0,0,30,30,23,29,15,15,29,11,11,22,27,18,28,9,16,11,2,10,7,5,6,7,10,4,15,19,17,29,6,13,13,17,28,23,30,14,9,3,25,28,28,8,3,17,0,0,341.txt
0,0,0,0,0,0,9,7,0,0,27,0,0,0,0,0,0,0,0,11,0,0,30,30,23,29,26,0,29,28,11,22,27,18,28,16,4,15,4,15,9,7,8,8,0,6,6,6,6,6,4,7,0,7,3,23,30,0,0,0,5,0,5,5,3,3,0,0,342.txt
0,0,0,0,0,0,9,7,0,0,27,0,0,0,0,0,0,0,0,7,0,0,30,30,23,29,26,15,29,28,11,22,27,18,28,1,1,1,1,1,9,7,8,8,6,6,6,6,6,6,2,7,0,15,4,6,6,0,0,0,5,11,5,5,3,17,14,4,344.txt
0,0,0,0,0,0,9,7,0,0,27,0,0,0,0,0,0,0,0,7,0,0,30,30,23,29,26,15,29,28,11,22,27,18,28,1,1,1,1,1,9,7,8,8,7,6,6,6,6,6,17,7,0,0,28,23,30,0,0,13,5,11,5,5,3,17,0,0,347.txt
0,0,0,0,0,0,28,28,0,0,4,0,0,0,0,7,0,0,0,11,0,0,30,30,23,29,26,0,29,28,11,10,27,7,28,4,4,4,4,4,9,7,8,8,0,6,6,6,6,6,6,7,0,0,3,23,30,0,0,5,5,11,5,5,10,17,0,0,349.txt
0,0,0,0,0,0,9,7,0,0,27,0,0,0,0,0,0,0,0,11,0,0,30,30,23,29,26,8,29,28,11,10,27,7,28,0,0,25,28,0,9,7,8,8,0,6,6,6,6,6,5,7,0,0,4,23,30,0,0,4,5,11,5,5,3,17,0,0,352.txt
0,0,0,3,0,0,9,7,0,2,24,4,4,4,4,7,0,0,0,11,4,3,3,3,3,29,4,14,29,5,11,0,27,0,28,27,12,27,3,12,9,7,8,8,0,6,7,6,6,7,5,19,5,6,4,14,14,5,26,13,5,9,5,5,4,7,3,11,354.txt
0,0,0,0,0,0,9,7,0,0,27,0,0,0,0,0,0,0,0,7,0,0,30,30,23,29,26,15,29,28,0,22,27,18,28,1,1,1,1,1,9,7,8,8,7,2,2,2,2,2,17,2,0,2,4,2,2,24,0,13,2,11,2,2,3,17,0,0,358.txt
0,0,0,0,0,0,9,7,0,0,27,0,0,0,0,0,0,0,0,7,0,0,30,30,23,29,26,15,29,28,0,22,27,18,28,1,1,1,1,1,9,7,8,8,7,1,1,1,1,1,17,1,1,1,1,1,1,1,1,1,1,1,1,1,1,1,1,1,360.txt
0,0,0,0,0,0,9,7,0,0,27,0,0,0,0,7,0,0,0,11,0,0,30,30,23,29,26,0,29,28,11,12,27,9,28,4,4,4,4,10,9,7,8,8,4,6,6,6,6,6,6,7,0,0,3,20,5,0,0,0,5,0,5,5,10,17,14,3,362.txt
0,0,0,0,0,0,9,7,0,0,27,0,0,0,0,0,0,0,0,7,0,0,30,30,23,29,26,12,29,28,0,22,25,18,26,29,26,23,26,20,9,7,8,8,4,8,6,22,8,6,6,7,0,7,4,23,30,0,0,17,5,11,5,5,3,17,0,0,364.txt
0,0,0,0,0,0,9,7,0,0,27,0,0,0,0,0,0,0,0,7,0,0,30,30,23,29,26,15,29,28,0,22,27,18,28,1,1,1,1,1,9,7,8,8,7,1,1,1,1,1,17,1,1,1,1,1,1,1,1,1,1,1,1,1,1,1,1,1,365.txt
0,0,0,0,0,0,9,7,0,0,27,0,0,0,0,0,0,0,0,11,0,0,30,30,23,29,26,15,29,28,0,22,27,18,28,18,8,19,7,9,9,7,8,8,7,2,2,2,2,2,17,2,1,2,1,2,2,1,1,1,2,1,2,2,1,1,1,1,368.txt
0,0,0,0,0,0,9,7,0,0,24,9,10,18,20,7,0,0,0,11,0,0,30,30,23,29,26,15,29,28,11,22,27,18,28,29,26,23,26,20,9,7,8,8,4,13,12,16,16,9,21,18,20,11,20,14,28,7,7,13,11,11,15,18,4,3,14,4,369.txt
0,0,0,0,0,0,9,7,0,0,27,0,0,0,0,0,0,0,0,7,0,0,30,30,23,29,26,15,29,28,0,22,27,18,28,1,1,1,1,1,9,7,8,8,7,1,1,1,1,1,17,1,1,1,1,1,1,1,1,1,1,1,1,1,1,1,1,1,371.txt
26,15,3,29,4,26,14,11,14,29,14,20,1,20,26,18,29,25,19,20,26,18,21,20,20,21,21,30,23,24,21,28,11,19,18,17,23,19,6,26,20,16,21,29,19,3,3,3,3,8,10,16,9,23,25,17,21,28,2,11,26,16,29,18,17,15,2,16,375.txt
0,0,0,0,0,0,9,7,0,0,27,0,0,0,0,0,0,0,0,11,0,0,30,30,23,29,26,0,29,28,11,10,27,7,28,29,26,23,26,20,9,7,8,8,0,6,6,6,6,6,6,7,0,0,4,23,30,0,0,3,5,11,5,5,3,17,0,0,377.txt
0,0,0,0,0,0,9,7,0,0,27,0,0,0,0,0,0,0,0,7,0,0,30,30,23,29,26,15,29,28,0,22,27,18,28,1,1,1,1,1,9,7,8,8,7,1,1,1,1,1,17,1,1,1,1,1,1,1,1,1,1,1,1,1,1,1,1,1,380.txt
26,2,1,15,8,24,22,18,15,8,9,10,7,1,17,22,24,26,1,19,19,29,23,21,18,12,24,17,3,4,27,4,13,5,10,25,25,26,29,27,6,15,14,27,4,26,26,9,30,23,16,29,20,6,20,13,11,11,16,14,19,25,15,18,13,12,23,28,382.txt
0,0,0,0,0,0,9,7,0,0,27,0,0,0,0,0,0,0,0,7,0,0,30,30,23,29,26,15,29,28,0,22,27,18,28,1,1,1,1,1,9,7,8,8,7,1,1,1,1,1,17,1,1,1,1,1,1,1,1,1,1,1,1,1,1,1,1,1,385.txt
26,2,3,15,1,12,18,17,18,24,6,29,30,30,1,25,24,14,14,19,24,24,1,1,1,28,11,3,1,16,27,4,17,5,23,16,4,15,4,27,28,26,19,29,16,26,25,29,29,10,22,16,9,0,25,17,14,16,15,7,26,11,29,18,17,30,19,13,386.txt
0,0,0,0,0,0,9,7,0,0,27,0,0,0,0,7,0,0,0,11,0,0,30,30,23,29,26,12,29,28,15,12,27,9,28,29,26,23,26,20,9,7,8,8,4,6,7,6,6,7,5,7,0,25,4,29,17,26,0,18,27,11,25,7,5,17,14,10,387.txt
0,0,0,0,0,0,9,7,0,0,27,0,0,0,0,0,0,0,0,11,0,0,30,30,23,29,26,0,29,28,11,12,27,9,28,29,26,23,26,20,9,7,8,8,6,6,6,6,6,6,17,7,0,5,4,17,5,0,0,0,5,0,5,5,9,7,14,0,391.txt
0,0,0,0,0,0,9,7,0,0,27,0,0,0,0,7,0,0,0,11,0,0,30,30,23,29,26,12,29,28,11,10,27,7,28,0,0,0,0,0,9,7,8,8,0,6,6,6,6,6,6,7,0,0,4,23,30,0,0,3,5,11,5,5,3,17,0,0,394.txt
0,0,0,0,0,0,9,7,0,0,27,0,0,0,0,0,0,0,0,7,0,0,30,30,23,29,26,15,29,28,11,22,27,18,28,1,1,1,1,1,9,7,8,8,7,6,6,6,6,6,1,7,0,0,28,23,30,0,0,4,5,11,5,5,3,17,0,0,395.txt
0,0,0,0,0,0,9,7,0,0,27,0,0,0,0,0,0,0,0,7,0,0,30,30,23,29,26,15,29,28,0,22,27,18,28,1,1,1,1,1,9,7,8,8,7,1,1,1,1,1,17,1,1,1,1,1,1,1,1,1,1,1,1,1,1,1,1,1,397.txt
0,2,0,0,0,0,9,7,0,0,27,0,0,0,0,0,0,0,0,7,2,2,2,2,2,2,2,15,2,2,2,3,3,3,3,1,1,1,1,1,3,3,3,3,7,1,1,1,1,1,17,1,1,1,1,1,1,1,1,1,1,1,1,1,1,1,1,1,400.txt
0,0,0,6,25,0,9,7,8,2,24,4,4,4,4,0,7,6,5,7,4,3,3,3,3,9,4,15,9,6,11,5,6,4,7,1,7,7,1,6,9,7,8,8,7,1,1,1,1,1,2,1,1,1,1,1,1,1,1,1,1,1,1,1,1,1,1,1,402.txt
0,0,0,0,0,0,9,7,0,0,27,0,0,0,0,0,0,0,0,7,0,0,30,30,23,29,26,7,29,28,11,0,27,0,28,1,1,1,1,1,9,7,8,8,0,6,6,6,6,6,17,7,0,0,4,23,30,0,0,0,5,11,5,5,3,22,0,0,405.txt
0,0,0,0,0,0,9,7,0,0,27,0,0,0,0,0,0,0,0,7,0,0,30,30,23,29,26,15,29,28,0,22,27,18,28,1,1,1,1,1,9,7,8,8,7,1,1,1,1,1,17,1,4,1,4,1,1,4,4,8,1,11,1,1,3,17,14,4,407.txt
0,2,1,0,0,0,22,18,13,0,27,0,0,0,0,0,0,0,0,11,6,5,10,10,1,1,25,9,1,1,26,4,23,23,10,0,0,25,28,0,17,16,26,17,0,6,6,6,6,6,6,7,0,0,4,23,30,0,0,13,5,11,5,5,2,11,0,2,411.txt
0,0,0,0,0,0,9,7,0,0,27,0,0,0,0,7,0,0,0,11,0,0,30,30,23,29,26,0,29,28,11,20,27,27,28,4,4,4,4,4,9,7,8,8,16,6,6,6,6,6,10,7,0,11,3,20,19,0,0,5,5,0,5,5,10,17,5,10,413.txt
0,0,0,0,0,0,9,7,0,0,27,0,0,0,0,0,0,0,0,7,0,0,30,30,23,29,26,15,29,28,0,22,27,18,28,1,1,1,1,1,9,7,8,8,7,1,1,1,1,1,17,1,0,1,4,1,1,0,0,3,1,11,1,1,3,17,0,0,416.txt
12,2,3,5,2,8,3,3,2,4,3,3,3,3,3,3,3,3,3,3,2,2,2,2,2,2,2,4,2,2,2,3,3,3,3,1,1,1,1,1,3,3,3,3,7,1,1,1,1,1,17,1,1,1,1,1,1,1,1,1,1,1,1,1,1,1,1,1,417.txt
0,0,5,0,22,0,4,9,3,0,19,28,14,2,18,0,0,0,0,7,0,0,30,30,23,29,26,15,29,28,0,22,27,18,28,26,1,1,24,1,9,7,8,8,7,2,2,2,2,2,17,2,1,2,1,2,2,1,1,1,2,1,2,2,1,1,1,1,419.txt
0,0,0,0,0,0,9,7,0,0,27,0,0,0,0,0,0,0,0,7,13,14,16,13,8,17,1,15,19,17,26,28,23,21,18,1,1,1,1,1,18,3,15,3,8,5,5,5,5,5,17,5,4,4,4,23,30,4,4,3,5,11,5,5,3,11,0,2,421.txt
0,0,0,0,0,0,9,7,0,0,27,0,0,0,0,0,0,0,0,7,0,0,30,30,23,29,26,15,29,28,0,22,27,18,28,1,1,1,1,1,9,7,8,8,7,1,1,1,1,1,17,1,1,1,1,1,1,1,1,1,1,1,1,1,1,1,1,1,423.txt
0,0,0,0,0,0,28,28,0,0,27,0,0,0,0,7,0,0,0,11,0,0,30,30,23,29,26,0,29,28,11,0,27,0,28,4,4,4,4,4,9,7,8,8,0,6,6,6,6,6,6,7,0,0,3,23,30,0,0,3,5,11,5,5,4,17,0,0,425.txt
0,0,0,0,0,0,9,7,0,0,27,0,0,0,0,0,0,0,0,11,0,0,30,30,23,29,26,15,29,28,0,22,27,18,28,29,26,23,26,20,9,7,8,8,7,2,2,2,2,2,17,2,1,2,1,2,2,1,1,1,2,1,2,2,1,1,1,1,427.txt
0,0,0,0,0,0,9,7,0,0,27,0,0,0,0,0,0,0,0,7,0,0,30,30,23,29,26,15,29,28,0,22,27,18,28,1,1,1,1,1,9,7,8,8,7,2,2,2,2,2,17,2,1,2,1,2,2,1,1,1,2,1,2,2,1,1,1,1,430.txt
0,0,0,0,0,0,9,7,0,0,27,0,0,0,0,7,0,0,0,11,0,0,30,30,23,29,26,12,29,28,11,22,27,18,28,29,26,23,26,20,9,7,8,8,10,6,6,6,6,6,17,7,0,0,4,23,30,0,0,4,5,11,5,5,3,17,0,0,434.txt
0,0,0,0,0,0,9,7,0,0,27,0,0,0,0,0,0,0,0,7,0,0,30,30,23,29,26,15,29,28,11,22,27,18,28,1,1,1,1,1,9,7,8,8,7,5,5,5,5,5,17,5,4,5,4,8,26,4,4,3,5,11,5,5,2,17,20,9,436.txt
0,0,0,0,0,0,9,7,0,0,27,0,0,0,0,0,0,0,0,7,0,0,30,30,23,29,26,15,29,28,0,22,27,18,28,1,1,1,1,1,9,7,8,8,7,1,1,1,1,1,17,1,1,1,1,1,1,1,1,1,1,1,1,1,1,1,1,1,439.txt
0,0,0,0,0,0,9,7,0,0,27,0,0,0,0,0,0,0,0,7,0,0,30,30,23,29,26,15,29,28,0,22,27,18,28,1,1,1,1,1,9,7,8,8,7,2,2,2,2,2,17,2,4,2,4,2,2,4,4,3,2,12,2,2,3,17,14,6,444.txt
0,0,0,0,0,0,9,7,0,0,27,0,0,0,0,0,0,0,0,7,0,0,30,30,23,29,26,15,29,28,0,22,27,18,28,1,1,1,1,1,9,7,8,8,7,6,6,6,6,6,17,7,0,15,4,6,6,0,0,0,5,11,5,5,3,17,8,0,447.txt
0,0,0,0,0,0,9,7,0,0,27,0,0,0,0,7,0,0,0,11,0,0,30,30,23,29,26,12,29,28,15,12,27,9,28,5,17,5,19,26,9,7,8,8,10,17,15,19,17,19,17,13,27,30,27,30,6,18,9,3,0,11,0,6,5,17,14,6,449.txt
0,0,0,0,0,0,9,7,0,0,27,0,0,0,0,0,0,0,0,7,0,0,30,30,23,29,26,15,29,28,6,22,27,18,28,1,1,1,1,1,9,7,8,8,7,1,1,1,1,1,2,1,1,1,1,1,1,1,1,1,1,1,1,1,1,1,1,1,452.txt
0,0,0,0,0,0,9,7,0,0,27,0,0,0,0,0,0,0,0,7,0,0,30,30,23,29,26,12,29,28,11,22,27,18,28,1,1,1,1,1,9,7,8,8,0,6,6,6,6,6,2,7,0,7,3,6,6,0,0,0,5,0,5,5,3,22,22,3,454.txt
0,0,0,0,0,0,9,7,0,0,27,0,0,0,0,0,0,0,0,7,0,0,30,30,23,29,26,15,29,28,11,22,27,18,28,1,1,1,1,1,9,7,8,8,7,1,1,1,1,1,17,1,0,1,28,1,1,0,0,3,1,11,1,1,3,17,0,0,456.txt
0,0,0,0,0,0,9,7,0,0,27,0,0,0,0,0,0,0,0,7,0,0,30,30,23,29,26,15,29,28,0,22,27,18,28,1,1,1,1,1,10,8,9,9,7,1,1,1,1,1,17,1,1,1,1,1,1,1,1,1,1,1,1,1,1,1,1,1,458.txt
0,0,0,0,0,0,9,7,0,0,27,0,0,0,0,0,0,0,0,7,0,0,30,30,23,29,26,0,29,28,0,22,27,18,28,1,1,1,1,1,9,7,8,8,6,14,21,11,18,13,2,8,15,16,25,6,6,13,13,0,12,11,16,13,3,17,14,4,460.txt
0,0,0,0,0,0,9,7,0,0,27,0,0,0,0,0,0,0,0,7,0,0,30,30,23,29,26,12,29,28,10,22,27,18,28,29,26,23,26,20,9,7,8,8,4,6,6,6,6,6,25,7,0,25,14,14,9,0,0,3,8,11,8,10,3,17,14,3,463.txt
0,0,0,0,0,0,9,7,0,0,27,0,0,0,0,0,0,0,0,11,0,0,30,30,23,29,26,0,29,28,11,0,27,0,28,0,0,0,0,0,9,7,8,8,0,6,6,6,6,6,6,7,0,0,4,23,30,0,0,0,4,11,20,23,3,17,0,0,465.txt
0,0,0,0,0,0,9,7,0,0,4,0,0,0,0,0,0,0,0,7,0,0,30,30,23,29,26,15,29,28,11,22,27,18,28,29,26,23,26,20,9,7,8,8,0,6,6,6,6,6,1,7,0,0,4,23,30,0,0,4,5,11,5,5,3,17,0,0,469.txt
12,2,1,15,2,12,24,11,13,8,5,6,7,15,16,1,3,1,19,3,6,5,10,10,7,17,25,9,19,23,26,1,23,29,6,1,1,1,1,1,3,3,3,3,7,5,5,5,5,5,17,5,4,17,28,23,30,4,4,4,25,12,28,7,17,11,17,2,472.txt
0,0,0,0,0,0,9,7,0,0,27,0,0,0,0,8,0,0,0,11,0,0,30,30,23,29,26,12,29,28,11,0,27,0,28,16,4,15,4,27,9,7,8,8,0,6,6,6,6,6,10,7,0,11,14,17,14,0,0,24,5,11,5,5,10,17,22,4,473.txt
0,0,0,0,0,0,9,7,0,0,27,0,0,0,0,0,0,0,0,7,0,0,30,30,23,29,26,15,29,28,0,22,27,18,28,1,1,1,1,1,9,7,8,8,7,1,1,1,1,1,17,1,1,1,1,1,1,1,1,1,1,1,1,1,1,1,1,1,475.txt
0,0,0,0,0,0,9,7,0,0,27,0,0,0,0,0,0,0,0,7,0,0,30,30,23,29,26,15,29,28,11,22,27,18,28,1,1,1,1,1,9,7,8,8,7,0,0,0,0,0,2,7,0,0,4,23,30,0,0,0,5,11,5,5,3,17,0,0,477.txt
0,0,0,0,0,0,9,7,0,0,27,0,0,0,0,0,0,0,0,7,0,0,30,30,23,29,26,15,29,28,0,22,27,18,28,1,1,1,1,1,9,7,8,8,7,1,1,1,1,1,17,1,0,1,4,1,1,0,0,0,1,11,1,1,3,17,14,4,479.txt
0,0,0,0,0,0,9,7,0,0,27,0,0,0,0,0,0,0,0,11,0,0,30,30,23,29,26,0,29,28,11,20,27,27,28,29,26,23,26,20,0,0,0,0,0,6,6,6,6,6,17,7,0,5,4,14,5,0,0,0,5,11,5,5,0,7,14,3,481.txt
0,0,0,0,0,0,9,7,0,0,27,0,0,0,0,0,0,0,0,7,0,0,30,30,23,29,26,15,29,28,0,22,27,18,28,1,1,1,1,1,9,7,8,8,7,1,1,1,1,1,17,1,1,1,1,1,1,1,1,1,1,1,1,1,1,1,1,1,485.txt
0,0,0,0,0,0,9,7,0,0,27,0,0,0,0,0,0,0,0,7,0,0,0,0,0,0,0,2,0,0,0,9,0,6,0,1,1,1,1,1,9,7,8,8,1,1,1,1,1,1,17,1,1,1,1,1,1,1,1,1,1,1,1,1,1,1,1,1,487.txt
0,0,0,0,0,0,9,7,8,0,27,0,0,0,0,0,7,6,5,7,10,9,8,8,10,9,26,15,9,28,11,22,6,18,7,1,1,1,1,1,9,7,8,8,7,6,6,6,6,6,2,7,0,17,4,23,30,0,0,13,5,11,5,5,0,7,0,0,488.txt
0,0,0,0,0,0,9,7,0,0,27,0,0,0,0,0,0,0,0,7,0,0,30,30,23,29,26,15,29,28,0,22,27,18,28,1,1,1,1,1,9,7,8,8,7,1,1,1,1,1,17,1,1,1,1,1,1,1,1,1,1,1,1,1,1,1,1,1,491.txt
0,0,0,0,0,0,9,7,0,0,27,0,0,0,0,0,0,0,0,7,0,0,30,30,23,29,26,15,29,28,0,22,27,18,28,1,1,1,1,1,9,7,8,8,7,1,1,1,1,1,17,1,0,1,4,1,1,0,0,0,1,11,1,1,3,17,0,0,492.txt
0,0,0,0,0,0,9,7,0,0,27,0,0,0,0,0,0,0,0,11,0,0,30,30,23,29,26,0,29,28,11,0,27,0,28,0,0,0,0,0,9,7,8,8,0,6,6,6,6,6,1,7,0,0,4,23,30,0,0,0,4,11,4,23,3,17,0,0,494.txt
0,0,5,0,22,0,4,4,3,0,19,28,21,2,27,0,0,0,0,11,0,0,30,30,23,29,15,8,29,11,11,22,27,18,28,0,27,24,27,21,7,5,6,7,4,6,6,6,6,6,14,7,0,7,4,6,8,0,0,3,5,11,5,5,3,17,8,10,496.txt
0,0,0,0,0,0,9,7,0,0,27,0,0,0,0,0,0,0,0,11,0,0,30,30,23,29,26,15,29,28,0,22,25,18,26,29,26,23,26,20,9,7,8,8,7,2,2,2,2,2,17,2,1,2,1,2,2,1,1,1,2,1,2,2,1,1,1,1,498.txt
0,0,0,0,0,0,9,7,0,0,27,0,0,0,0,0,0,0,0,7,0,0,30,30,23,29,26,15,29,28,0,22,27,18,28,1,1,1,1,1,9,7,8,8,7,1,1,1,1,1,17,1,4,1,4,1,1,4,4,4,1,11,1,1,3,17,0,0,500.txt
0,0,0,0,0,0,9,7,0,0,27,0,0,0,0,7,0,0,0,11,0,0,30,30,23,29,26,12,29,28,11,22,27,18,28,9,15,11,2,7,9,7,8,8,0,6,7,6,6,7,20,7,0,4,6,23,30,0,0,4,27,11,6,0,11,17,0,0,502.txt
0,0,0,0,0,0,9,7,0,0,27,0,0,0,0,0,0,0,0,7,0,0,30,30,23,29,26,0,29,28,11,10,27,7,28,1,1,1,1,1,9,7,8,8,0,6,6,6,6,6,2,7,0,7,3,23,30,0,0,0,4,0,4,23,3,22,0,0,503.txt
0,0,0,0,0,0,9,7,0,0,27,0,0,0,0,0,0,0,0,7,0,0,30,30,23,29,26,12,29,28,11,22,27,18,28,18,16,20,2,7,9,7,8,8,0,6,6,6,6,6,17,7,0,7,6,23,30,0,0,3,5,28,5,5,3,17,0,0,505.txt
0,0,0,0,0,0,9,7,0,0,27,0,0,0,0,0,0,0,0,7,0,0,30,30,23,29,26,15,29,28,0,22,27,18,28,1,1,1,1,1,9,7,8,8,7,1,1,1,1,1,17,1,1,1,1,1,1,1,1,1,1,1,1,1,1,1,1,1,507.txt
0,0,0,0,0,0,9,7,0,0,27,0,0,0,0,0,0,0,0,7,0,0,30,30,23,29,26,12,29,28,11,12,27,9,28,1,1,1,1,1,9,7,8,8,4,6,6,6,6,6,13,7,0,15,4,6,6,0,0,3,5,11,5,5,3,17,14,3,510.txt
0,0,0,0,0,0,9,7,0,0,27,0,0,0,0,0,0,0,0,7,0,0,30,30,23,29,26,15,29,28,0,22,27,18,28,1,1,1,1,1,9,7,8,8,7,1,1,1,1,1,17,1,1,1,1,1,1,1,1,1,1,1,1,1,1,1,1,1,513.txt
0,0,0,0,0,0,9,7,0,0,27,0,0,0,0,0,0,0,0,7,0,0,30,30,23,29,26,15,29,28,0,22,27,18,28,1,1,1,1,1,10,8,9,9,7,1,1,1,1,1,17,1,1,1,1,1,1,1,1,1,1,1,1,1,1,1,1,1,516.txt
0,0,0,0,0,0,9,7,0,0,27,0,0,0,0,0,0,0,0,11,0,0,30,30,23,29,26,0,29,28,11,10,27,7,28,4,4,4,4,10,9,7,8,8,0,6,6,6,6,6,17,7,0,0,3,23,30,0,0,3,5,6,5,5,3,17,0,0,518.txt
26,2,1,0,0,0,25,11,5,0,27,0,0,0,0,15,0,0,0,11,6,5,10,10,7,6,17,30,6,17,20,6,17,10,15,30,27,24,27,21,18,18,4,22,10,18,15,19,17,29,27,13,11,15,4,6,6,3,12,3,21,11,20,23,2,13,20,17,521.txt
12,2,2,29,2,26,13,11,1,29,10,12,1,14,17,29,22,9,14,16,27,14,16,13,26,17,5,16,19,23,9,28,9,19,18,29,26,23,26,20,3,3,3,3,7,8,6,22,8,6,17,7,0,7,28,6,6,0,0,16,5,21,5,5,12,13,25,17,524.txt
0,0,5,0,22,0,4,4,3,0,19,28,21,2,27,7,0,0,0,11,24,24,1,1,1,28,1,8,1,12,1,1,1,29,14,29,26,23,26,20,4,1,1,1,0,6,6,6,6,6,6,7,0,4,4,23,30,0,0,5,6,11,6,8,4,27,0,2,527.txt
0,0,0,0,0,0,9,7,0,0,27,0,0,0,0,0,0,0,0,7,0,0,30,30,23,29,26,15,29,28,0,22,27,18,28,1,1,1,1,1,9,7,8,8,7,1,1,1,1,1,17,1,1,1,1,1,1,1,1,1,1,1,1,1,1,1,1,1,529.txt
0,0,0,0,0,0,9,7,0,0,27,0,0,0,0,0,0,0,0,7,0,0,30,30,23,29,26,15,29,28,11,22,27,18,28,1,1,1,1,1,9,7,8,8,7,1,1,1,1,1,17,1,0,1,28,1,1,0,0,0,1,12,1,1,3,17,4,3,530.txt
0,0,0,0,0,0,9,7,0,0,27,0,0,0,0,0,0,0,0,7,0,0,30,30,23,29,26,15,29,28,11,22,27,18,28,1,1,1,1,1,9,7,8,8,0,6,6,6,6,6,2,7,0,0,17,23,30,0,0,0,5,11,5,5,3,17,0,0,532.txt
0,0,0,0,0,0,9,7,0,0,27,0,0,0,0,0,0,0,0,11,0,0,30,30,23,29,26,12,29,28,11,22,27,18,28,2,2,2,2,10,9,7,8,8,0,6,6,6,6,6,1,7,0,0,6,23,30,0,0,6,5,11,5,5,3,17,0,0,534.txt
0,0,0,0,0,0,9,7,0,0,27,0,0,0,0,0,0,0,0,7,0,0,30,30,23,29,26,15,29,28,0,22,27,18,28,1,1,1,1,1,0,0,0,0,7,1,1,1,1,1,17,1,1,1,1,1,1,1,1,1,1,1,1,1,1,1,1,1,536.txt
0,0,0,0,0,0,9,7,0,0,27,0,0,0,0,0,0,0,0,7,0,0,30,30,23,29,26,15,29,28,0,22,27,18,28,1,1,1,1,1,9,7,8,8,7,1,1,1,1,1,17,1,1,1,1,1,1,1,1,1,1,1,1,1,1,1,1,1,538.txt
0,0,0,0,0,0,9,7,24,0,27,0,0,0,0,0,0,0,0,24,0,0,30,30,23,29,26,0,29,28,11,10,27,7,28,4,4,4,4,10,9,7,8,8,3,6,6,6,6,6,6,7,0,5,3,23,30,0,0,0,5,0,5,5,3,3,0,0,541.txt
0,0,0,0,0,0,9,7,0,0,27,0,0,0,0,0,0,0,0,7,0,0,30,30,23,29,26,15,29,28,11,22,27,18,28,1,1,1,1,1,0,0,0,0,7,1,1,1,1,1,17,1,5,1,0,1,1,5,5,13,1,2,1,1,3,7,14,3,543.txt
0,0,0,0,0,0,9,7,0,0,4,0,0,0,0,0,0,0,0,7,0,0,30,30,23,29,26,15,29,28,0,22,27,18,28,1,1,1,1,1,9,7,8,8,7,1,1,1,1,1,0,1,1,1,1,1,1,1,1,1,1,1,1,1,1,1,1,1,545.txt
0,0,0,0,0,0,9,7,0,0,27,0,0,0,0,7,0,0,0,7,0,0,30,30,23,29,26,15,29,28,8,22,27,18,28,1,1,1,1,1,9,7,8,8,7,2,2,2,2,2,17,2,1,2,1,2,2,1,1,1,2,1,2,2,1,1,1,1,549.txt
0,0,0,0,0,0,9,7,0,0,27,0,0,0,0,0,0,0,0,7,0,0,30,30,23,29,26,15,29,28,11,22,27,18,28,1,1,1,1,1,9,7,8,8,0,6,6,6,6,6,2,7,0,0,28,23,30,0,0,3,5,12,5,5,3,17,0,0,551.txt
0,0,0,0,0,0,9,7,0,0,27,0,0,0,0,0,0,0,0,7,0,0,30,30,23,29,26,15,29,28,0,22,27,18,28,1,1,1,1,1,9,7,8,8,7,1,1,1,1,1,17,1,0,1,4,1,1,0,0,0,1,11,1,1,3,17,0,0,554.txt
0,0,0,0,0,0,9,7,0,0,27,0,0,0,0,0,0,0,0,11,0,0,30,30,23,29,26,12,29,28,11,22,27,18,28,29,26,23,26,20,9,7,8,8,0,6,6,6,6,6,17,7,0,0,4,23,30,0,0,3,5,28,5,5,3,17,0,0,557.txt
0,0,0,0,0,0,9,7,0,0,27,0,0,0,0,7,0,0,0,11,0,0,30,30,23,29,26,0,29,28,11,10,27,7,28,0,0,0,0,0,9,7,8,8,0,6,6,6,6,6,6,7,0,0,4,23,30,0,0,4,5,11,5,5,10,17,0,0,558.txt
0,0,0,0,0,0,9,7,0,0,27,0,0,0,0,0,0,0,0,7,0,0,30,30,23,29,26,12,29,28,11,22,27,18,28,1,1,1,1,1,9,7,8,8,0,6,6,6,6,6,2,7,0,0,4,23,30,0,0,0,5,11,5,5,3,22,0,0,561.txt
26,15,3,15,4,12,2,2,5,23,6,29,19,30,16,18,24,14,18,19,24,24,1,1,1,28,11,27,1,12,27,4,19,23,14,29,26,23,26,20,22,21,16,22,16,6,6,6,6,6,4,7,0,15,3,6,8,0,0,4,5,0,5,5,2,11,17,14,564.txt
0,0,0,0,0,0,9,7,0,0,27,0,0,0,0,0,0,0,0,7,0,0,30,30,23,29,26,15,29,28,11,22,27,18,28,1,1,1,1,1,9,7,8,8,7,5,5,5,5,5,2,5,4,15,4,6,6,4,4,16,5,11,5,5,3,17,8,4,566.txt
0,0,0,0,0,0,9,7,0,0,27,0,0,0,0,0,0,0,0,11,0,0,30,30,23,29,26,12,29,28,11,22,27,18,28,29,26,23,26,20,9,7,8,8,0,6,6,6,6,6,6,7,0,0,4,23,30,0,0,3,5,11,5,5,3,17,0,0,568.txt
0,0,0,0,0,0,9,7,0,0,27,0,0,0,0,0,0,0,0,7,0,0,30,30,23,29,26,15,29,28,11,22,27,18,28,1,1,1,1,1,9,7,8,8,7,6,6,6,6,6,17,7,0,0,4,23,30,0,0,3,5,11,5,5,3,17,0,0,572.txt
0,0,0,0,0,0,9,7,0,0,27,0,0,0,0,0,0,0,0,7,0,0,30,30,23,29,26,15,29,28,11,22,27,18,28,1,1,1,1,1,9,7,8,8,7,1,1,1,1,1,17,1,1,1,1,1,1,1,1,1,1,1,1,1,1,1,1,1,574.txt
0,0,0,0,0,0,9,7,0,0,27,0,0,0,0,0,0,0,0,7,0,0,30,30,23,29,26,15,29,28,11,22,27,18,28,1,1,1,1,1,9,7,8,8,21,5,5,5,5,5,17,5,4,5,4,8,9,4,4,4,5,11,5,5,3,17,14,3,576.txt
0,0,0,0,0,0,9,7,0,0,27,0,0,0,0,0,0,0,0,7,0,0,30,30,23,29,26,15,29,28,0,22,27,18,28,1,1,1,1,1,9,7,8,8,7,1,1,1,1,1,17,1,1,1,1,1,1,1,1,1,1,1,1,1,1,1,1,1,578.txt
0,0,0,0,0,0,9,7,0,0,27,0,0,0,0,7,0,0,0,11,0,0,30,30,23,29,26,0,29,28,11,22,27,18,28,2,2,2,11,10,9,7,8,8,0,15,13,15,15,8,1,8,10,0,11,23,30,27,27,0,30,0,19,13,4,17,0,0,580.txt
0,0,0,0,0,0,9,7,0,0,27,0,0,0,0,0,0,0,0,7,0,0,30,30,23,29,26,15,29,28,0,22,27,18,28,1,1,1,1,1,9,7,8,8,7,1,1,1,1,1,17,1,1,1,1,1,1,1,1,1,1,1,1,1,1,1,1,1,582.txt
0,0,0,0,0,0,9,7,0,0,27,0,0,0,0,0,0,0,0,7,0,0,30,30,23,29,26,15,29,28,0,22,27,18,28,1,1,1,1,1,9,7,8,8,7,1,1,1,1,1,17,1,1,1,1,1,1,1,1,1,1,1,1,1,1,1,1,1,584.txt
12,2,1,29,4,12,25,11,1,8,10,20,16,14,17,16,11,14,19,16,24,24,1,27,1,1,25,1,1,1,26,30,23,23,20,29,26,23,26,20,15,16,26,3,11,19,27,17,25,4,17,10,12,0,4,6,6,3,25,4,5,11,5,5,3,11,14,14,586.txt
0,0,0,0,0,0,9,7,0,0,27,0,0,0,0,0,0,0,0,7,0,0,30,30,23,29,26,15,29,28,0,22,27,18,28,1,1,1,1,1,9,7,8,8,7,1,1,1,1,1,17,1,4,1,4,1,1,4,4,3,1,11,1,1,3,17,0,0,588.txt
0,0,0,0,0,0,9,7,0,0,27,0,0,0,0,0,0,0,0,7,0,0,30,30,23,29,26,15,29,28,11,22,27,18,28,29,26,23,26,20,9,7,8,8,7,9,26,29,30,15,17,17,23,5,25,8,15,17,15,15,30,21,19,26,3,17,14,4,591.txt
0,0,0,0,0,0,9,7,0,0,27,0,0,0,0,0,0,0,0,7,0,0,30,30,23,29,26,12,29,28,11,22,27,18,28,0,27,24,27,21,9,7,8,8,0,6,6,6,6,6,1,7,0,0,4,23,30,0,0,4,4,11,20,23,3,17,0,0,594.txt
0,0,0,0,0,0,9,7,0,0,4,0,0,0,0,0,0,0,0,7,0,0,30,30,23,29,26,15,29,28,0,22,27,18,28,1,1,1,1,1,9,7,8,8,7,1,1,1,1,1,0,1,1,1,1,1,1,1,1,1,1,1,1,1,1,1,1,1,596.txt
0,0,0,0,0,0,9,7,0,0,27,0,0,0,0,0,0,0,0,7,0,0,30,30,23,29,26,15,29,28,0,22,27,18,28,1,1,1,1,1,0,0,0,0,7,1,1,1,1,1,17,1,1,1,1,1,1,1,1,1,1,1,1,1,1,1,1,1,598.txt
0,0,0,0,0,0,9,7,0,0,27,0,0,0,0,0,0,0,0,7,0,0,30,30,23,29,26,15,29,28,11,22,27,18,28,1,1,1,1,1,9,7,8,8,7,1,1,1,1,1,17,1,0,1,4,1,1,0,0,13,1,11,1,1,3,17,14,4,600.txt
0,0,0,0,0,0,9,7,0,0,27,0,0,0,0,0,0,0,0,7,0,0,30,30,23,29,26,15,29,28,0,22,27,18,28,1,1,1,1,1,9,7,8,8,7,1,1,1,1,1,17,1,1,1,1,1,1,1,1,1,1,1,1,1,1,1,1,1,603.txt
0,0,0,0,0,0,9,7,0,0,27,0,0,0,0,0,0,0,0,0,0,0,30,30,23,29,26,8,29,28,11,22,27,18,28,29,26,23,26,20,9,7,8,8,0,8,6,22,8,6,17,7,0,0,4,23,30,0,0,0,5,11,5,5,3,17,0,0,604.txt
0,0,0,0,0,0,9,7,0,0,27,0,0,0,0,0,0,0,0,7,0,0,0,0,0,0,0,2,0,0,0,9,0,6,0,1,1,1,1,1,9,7,8,8,1,8,6,22,8,6,17,7,0,4,28,23,30,0,0,13,6,12,6,0,3,17,0,0,606.txt
0,0,0,0,0,0,9,7,0,0,27,0,0,0,0,0,0,0,0,7,0,0,30,30,23,29,26,15,29,28,0,22,27,18,28,1,1,1,1,1,9,7,8,8,7,1,1,1,1,1,17,1,1,1,1,1,1,1,1,1,1,1,1,1,1,1,1,1,607.txt
0,0,0,6,0,0,9,7,0,2,24,4,4,4,4,7,0,0,0,11,4,3,3,3,3,29,4,29,29,18,11,10,27,7,28,29,26,23,26,20,0,0,0,0,0,6,6,6,6,6,6,19,5,0,4,23,30,5,5,0,5,11,5,5,0,7,0,0,613.txt
0,0,0,0,0,0,9,7,0,0,27,0,0,0,0,0,0,0,0,7,0,0,30,30,23,29,26,15,29,28,0,22,27,18,28,1,1,1,1,1,0,0,0,0,7,1,1,1,1,1,17,1,1,1,1,1,1,1,1,1,1,1,1,1,1,1,1,1,615.txt
0,0,0,0,0,0,9,7,0,0,27,0,0,0,0,0,0,0,0,7,0,0,30,30,23,29,26,15,29,28,0,22,27,18,28,1,1,1,1,1,9,7,8,8,7,1,1,1,1,1,17,1,1,1,1,1,1,1,1,1,1,1,1,1,1,1,1,1,618.txt
0,0,0,0,0,0,9,7,0,0,27,0,0,0,0,0,0,0,0,7,0,0,30,30,23,29,26,15,29,28,0,22,27,18,28,1,1,1,1,1,0,0,0,0,7,1,1,1,1,1,17,1,1,1,1,1,1,1,1,1,1,1,1,1,1,1,1,1,621.txt
0,0,0,0,0,0,9,7,0,0,27,0,0,0,0,0,0,0,0,7,0,0,30,30,23,29,26,15,29,28,0,22,27,18,28,1,1,1,1,1,9,7,8,8,7,1,1,1,1,1,17,1,1,1,1,1,1,1,1,1,1,1,1,1,1,1,1,1,623.txt
26,15,3,17,4,12,24,11,5,23,14,20,19,20,26,18,24,12,18,17,29,5,10,22,25,6,17,30,6,17,20,6,17,11,15,0,27,24,27,21,20,14,4,22,0,8,6,22,8,6,4,7,0,8,4,9,6,0,0,3,29,11,20,23,2,13,25,17,624.txt
0,0,0,0,0,0,9,7,0,0,27,0,0,0,0,0,0,0,0,7,0,0,30,30,23,29,26,15,29,28,0,22,27,18,28,1,1,1,1,1,0,0,0,0,7,1,1,1,1,1,17,1,1,1,1,1,1,1,1,1,1,1,1,1,1,1,1,1,627.txt
0,0,0,0,0,0,9,7,0,0,27,0,0,0,0,0,0,0,0,7,0,0,30,30,23,29,26,15,29,28,0,22,27,18,28,1,1,1,1,1,9,7,8,8,7,1,1,1,1,1,17,1,1,1,1,1,1,1,1,1,1,1,1,1,1,1,1,1,628.txt
0,0,0,0,0,0,9,7,0,0,27,0,0,0,0,0,0,0,0,7,0,0,0,0,0,0,0,2,0,0,0,9,0,6,0,1,1,1,1,1,9,7,8,8,1,1,1,1,1,1,17,1,1,1,1,1,1,1,1,1,1,1,1,1,1,1,1,1,629.txt
3,15,3,5,2,14,3,3,18,9,3,3,8,3,21,21,24,17,3,17,27,14,26,29,26,17,21,4,19,25,29,8,17,30,19,26,6,6,24,13,30,28,5,3,5,13,12,16,16,15,27,17,23,18,25,8,17,17,15,28,30,11,19,3,17,18,19,23,631.txt
0,0,0,0,0,0,28,28,0,0,27,0,0,0,0,7,0,0,0,11,0,0,30,30,23,29,26,0,29,28,10,12,27,9,28,16,4,15,4,4,9,7,8,8,10,9,8,29,9,3,12,3,2,11,2,17,17,6,15,5,19,0,15,17,4,17,4,10,633.txt
0,0,0,0,0,0,9,7,0,0,27,0,0,0,0,0,0,0,0,7,0,0,30,30,23,29,26,15,29,28,0,22,27,18,28,1,1,1,1,1,9,7,8,8,7,1,1,1,1,1,17,1,1,1,1,1,1,1,1,1,1,1,1,1,1,1,1,1,635.txt
0,0,0,0,0,0,9,7,0,0,27,0,0,0,0,0,0,0,0,7,0,0,30,30,23,29,26,15,29,28,0,22,27,18,28,1,1,1,1,1,9,7,8,8,7,0,0,0,0,0,17,7,0,0,4,23,30,0,0,13,6,11,12,7,3,17,0,0,637.txt
0,0,0,0,0,0,9,7,0,0,27,0,0,0,0,0,0,0,0,7,0,0,30,30,23,29,26,15,29,28,0,22,27,18,28,1,1,1,1,1,9,7,8,8,7,1,1,1,1,1,17,1,1,1,1,1,1,1,1,1,1,1,1,1,1,1,1,1,642.txt
0,0,0,0,0,0,9,7,0,0,27,0,0,0,0,0,0,0,0,7,0,0,30,30,23,29,26,15,29,28,0,22,27,18,28,1,1,1,1,1,9,7,8,8,7,1,1,1,1,1,17,1,0,1,4,1,1,0,0,3,1,11,1,1,3,17,14,0,645.txt
26,2,1,15,1,24,22,18,15,8,6,29,7,30,17,25,18,12,1,22,19,29,15,15,18,12,30,11,7,4,19,16,13,5,13,14,22,20,14,28,4,10,10,12,4,10,9,10,10,23,17,29,20,11,20,29,14,9,30,3,19,14,11,12,13,8,19,25,647.txt
0,0,0,0,0,0,9,7,0,0,27,0,0,0,0,0,0,0,0,7,0,0,30,30,23,29,26,15,29,28,0,22,27,18,28,1,1,1,1,1,9,7,8,8,7,1,1,1,1,1,17,1,1,1,1,1,1,1,1,1,1,1,1,1,1,1,1,1,650.txt
0,0,0,0,0,0,9,7,0,0,27,0,0,0,0,7,0,0,0,11,0,0,30,30,23,29,26,0,29,28,11,0,27,0,28,0,0,0,0,0,9,7,8,8,4,6,6,6,6,6,2,7,0,11,4,14,5,0,0,0,5,11,5,5,3,16,8,0,652.txt
0,0,0,0,0,0,9,7,0,0,4,0,0,0,0,0,0,0,0,7,0,0,30,30,23,29,26,15,29,28,0,22,27,18,28,1,1,1,1,1,9,7,8,8,7,2,2,2,2,2,0,2,1,2,1,2,2,1,1,1,2,1,2,2,1,1,1,1,654.txt
0,0,0,0,0,0,9,7,0,0,27,0,0,0,0,0,0,0,0,7,0,0,30,30,23,29,26,15,29,28,11,22,27,18,28,1,1,1,1,1,9,7,8,8,0,6,6,6,6,6,4,7,0,0,4,6,6,0,0,13,5,11,5,5,3,17,14,3,657.txt
0,0,0,0,0,0,9,7,0,0,27,0,0,0,0,0,0,0,0,7,0,0,30,30,23,29,26,15,29,28,0,22,27,18,28,1,1,1,1,1,9,7,8,8,7,1,1,1,1,1,17,1,1,1,1,1,1,1,1,1,1,1,1,1,1,1,1,1,658.txt
0,0,5,0,3,0,9,29,0,0,27,0,0,0,0,7,0,0,0,11,0,0,30,30,23,29,26,12,29,28,11,10,27,7,28,29,26,23,26,20,9,7,8,8,10,2,2,2,2,2,17,2,3,2,4,2,2,3,3,13,2,21,2,2,4,17,0,0,662.txt
0,0,0,0,0,0,9,7,0,0,27,0,0,0,0,0,0,0,0,7,0,0,30,30,23,29,26,15,29,28,11,22,27,18,28,1,1,1,1,1,9,7,8,8,7,1,1,1,1,1,17,1,0,1,28,1,1,0,0,15,1,12,1,1,3,17,22,9,663.txt
0,0,0,0,0,0,9,7,0,0,27,0,0,0,0,0,0,0,0,7,0,0,30,30,23,29,26,15,29,28,0,22,27,18,28,1,1,1,1,1,9,7,8,8,7,1,1,1,1,1,17,1,1,1,1,1,1,1,1,1,1,1,1,1,1,1,1,1,665.txt
0,0,0,0,0,0,9,7,0,0,27,0,0,0,0,0,0,0,0,7,0,0,30,30,23,29,26,15,29,28,0,22,27,18,28,1,1,1,1,1,0,0,0,0,7,1,1,1,1,1,17,1,1,1,1,1,1,1,1,1,1,1,1,1,1,1,1,1,669.txt
0,0,0,0,0,0,9,7,0,0,27,0,0,0,0,0,0,0,0,7,0,0,30,30,23,29,26,15,29,28,0,22,27,18,28,1,1,1,1,1,0,0,0,0,7,1,1,1,1,1,17,1,20,1,20,1,1,27,27,0,1,2,1,1,0,7,4,3,671.txt
0,0,0,6,0,0,9,7,0,5,24,5,5,5,5,0,0,0,0,7,4,3,3,3,3,29,4,29,29,19,11,12,27,9,28,0,0,0,0,0,9,7,8,8,4,6,6,6,6,6,2,7,0,15,4,6,6,0,24,0,5,11,5,5,3,22,14,3,673.txt
0,0,0,0,0,0,9,7,0,0,27,0,0,0,0,0,0,0,0,7,0,0,30,30,23,29,26,15,29,28,0,22,27,18,28,1,1,1,1,1,9,7,8,8,7,1,1,1,1,1,17,1,0,1,4,1,1,0,0,0,1,11,1,1,3,17,0,0,675.txt
26,15,3,1,1,13,18,17,1,10,6,29,1,30,26,1,1,1,14,1,24,24,1,1,1,28,25,16,1,16,26,1,23,29,1,29,26,23,26,20,4,1,1,17,0,6,6,6,6,6,1,7,0,0,4,23,30,0,0,3,5,0,5,5,12,30,10,2,678.txt
0,0,0,0,0,0,9,7,0,0,27,0,0,0,0,0,0,0,0,7,0,0,30,30,23,29,26,15,29,28,0,22,27,18,28,1,1,1,1,1,9,7,8,8,7,1,1,1,1,1,17,1,1,1,1,1,1,1,1,1,1,1,1,1,1,1,1,1,680.txt
0,0,0,0,0,0,9,7,0,0,27,0,0,0,0,0,0,0,0,7,0,0,30,30,23,29,26,15,29,28,0,22,27,18,28,1,1,1,1,1,10,8,9,9,7,1,1,1,1,1,17,1,1,1,1,1,1,1,1,1,1,1,1,1,1,1,1,1,683.txt
0,0,0,0,0,0,9,7,0,0,27,0,0,0,0,0,0,0,0,7,0,0,30,30,23,29,26,15,29,28,0,22,27,18,28,1,1,1,1,1,9,7,8,8,7,1,1,1,1,1,17,1,1,1,1,1,1,1,1,1,1,1,1,1,1,1,1,1,685.txt
0,0,0,0,0,0,9,7,0,0,27,0,0,0,0,0,0,0,0,7,0,0,30,30,23,29,26,15,29,28,0,22,27,18,28,1,1,1,1,1,9,7,8,8,7,1,1,1,1,1,17,1,1,1,1,1,1,1,1,1,1,1,1,1,1,1,1,1,687.txt
0,0,0,0,0,0,9,7,0,0,27,0,0,0,0,0,0,0,0,7,0,0,30,30,23,29,26,15,29,28,0,22,27,18,28,1,1,1,1,1,9,7,8,8,7,1,1,1,1,1,17,1,1,1,1,1,1,1,1,1,1,1,1,1,1,1,1,1,689.txt
0,0,0,0,0,0,9,7,0,0,27,0,0,0,0,0,0,0,0,9,0,0,30,30,23,29,26,12,29,28,11,0,27,0,28,29,26,23,26,20,9,7,8,8,4,6,6,6,6,6,17,7,0,15,4,8,5,0,0,0,5,21,5,5,3,22,14,3,691.txt
0,2,3,0,0,0,24,11,5,0,27,0,0,0,0,0,0,0,0,11,6,5,10,10,7,6,17,27,6,17,20,6,19,23,15,29,26,23,26,20,20,17,20,28,21,17,15,18,17,29,20,20,27,25,27,17,14,14,9,3,5,28,5,5,2,11,16,14,695.txt
0,0,0,0,0,0,9,7,0,0,27,0,0,0,0,0,0,0,0,7,0,0,0,0,0,0,0,2,0,0,0,9,0,6,0,1,1,1,1,1,9,7,8,8,1,1,1,1,1,1,17,1,1,1,1,1,1,1,1,1,1,1,1,1,1,1,1,1,696.txt
0,2,0,0,0,0,9,7,0,0,27,0,0,0,0,0,0,0,0,7,12,13,16,13,8,12,5,15,7,4,9,1,9,29,10,1,1,1,1,1,1,3,11,1,0,6,6,6,6,6,17,7,0,0,4,23,30,0,0,0,5,11,5,5,3,11,0,2,700.txt
0,0,0,0,0,0,9,7,24,0,27,0,0,0,0,0,0,0,0,7,0,0,30,30,23,29,26,0,29,28,11,0,27,0,28,1,1,1,1,1,0,0,0,0,0,6,6,6,6,6,2,19,5,5,3,23,30,5,5,0,5,0,5,5,0,7,0,0,703.txt
12,15,3,5,2,21,3,3,5,10,3,3,23,3,16,18,6,12,3,5,6,5,10,10,14,6,16,4,6,20,21,26,19,10,15,18,19,19,2,16,3,29,3,10,7,17,15,17,17,19,29,10,12,23,28,29,17,14,9,3,25,10,28,6,2,18,17,15,705.txt
0,0,0,0,0,0,9,7,0,0,27,0,0,0,0,0,0,0,0,7,0,0,30,30,23,29,26,15,29,28,0,22,27,18,28,1,1,1,1,1,9,7,8,8,7,1,1,1,1,1,17,1,0,1,4,1,1,0,0,0,1,11,1,1,3,17,0,0,706.txt
0,0,0,0,0,0,9,7,0,0,27,0,0,0,0,0,0,0,0,7,0,0,30,30,23,29,15,15,29,11,11,22,27,18,28,29,26,23,26,20,7,5,6,7,10,4,15,19,17,4,17,13,13,0,6,23,30,14,9,3,5,11,5,5,3,17,0,0,709.txt
0,0,0,0,0,0,9,7,0,0,27,0,0,0,0,0,0,0,0,7,0,0,30,30,23,29,26,15,29,28,11,22,27,18,28,1,1,1,1,1,9,7,8,8,7,6,6,6,6,6,14,7,0,15,4,6,6,0,0,3,25,12,28,7,3,17,8,10,711.txt
0,0,0,0,0,0,9,7,0,0,27,0,0,0,0,0,0,0,0,7,0,0,30,30,23,29,26,15,29,28,0,22,27,18,28,1,1,1,1,1,9,7,8,8,7,5,5,5,5,5,2,5,4,15,28,6,6,4,4,16,0,11,0,6,3,17,4,5,712.txt
0,0,0,3,0,0,9,7,0,2,24,4,4,4,4,7,0,0,0,11,0,0,30,30,23,29,26,5,29,28,11,10,27,7,28,29,26,23,26,20,9,7,8,8,4,6,6,6,6,6,17,7,0,11,4,10,14,0,0,28,5,11,5,5,3,17,27,10,713.txt
0,0,5,0,22,0,4,9,3,0,2,2,14,2,18,0,0,0,0,11,0,0,30,30,23,29,26,15,29,28,0,22,27,18,28,27,3,27,15,3,0,0,0,0,7,2,2,2,2,2,17,2,2,2,2,2,2,7,7,13,2,17,2,2,14,7,14,4,716.txt
0,0,0,0,0,0,9,7,0,0,27,0,0,0,0,7,0,0,0,11,0,0,30,30,23,29,26,12,29,28,11,0,27,0,28,29,26,23,26,20,9,7,8,8,0,6,7,6,6,7,1,7,0,0,4,23,30,26,0,3,5,11,5,5,10,17,0,0,722.txt
0,0,0,0,0,0,9,7,0,0,27,0,0,0,0,0,0,0,0,7,0,0,30,30,23,29,26,15,29,28,11,22,27,18,28,1,1,1,1,1,9,7,8,8,7,6,6,6,6,6,2,7,0,7,28,23,30,0,0,13,21,12,20,23,3,17,0,0,724.txt
0,0,5,0,29,0,4,9,3,0,2,2,14,2,18,7,0,0,0,11,0,0,30,30,23,29,26,12,29,28,0,0,27,0,28,0,0,0,0,0,9,7,8,8,10,2,2,2,2,2,17,2,2,2,2,2,2,7,7,13,2,11,2,2,4,17,14,4,727.txt
0,0,0,0,0,0,9,7,0,0,27,0,0,0,0,0,0,0,0,11,0,0,30,30,23,29,26,0,29,28,11,10,27,7,28,0,0,25,28,0,9,7,8,8,0,6,6,6,6,6,17,7,0,0,4,23,30,0,0,0,5,11,5,5,3,22,0,0,728.txt
0,0,0,0,0,0,9,7,0,0,27,0,0,0,0,0,0,0,0,7,0,0,30,30,23,29,26,15,29,28,0,22,27,18,28,1,1,1,1,1,9,7,8,8,7,1,1,1,1,1,17,1,1,1,1,1,1,1,1,1,1,1,1,1,1,1,1,1,732.txt
0,0,0,0,0,0,9,7,0,0,27,0,0,0,0,0,0,0,0,7,0,0,30,30,23,29,26,15,29,28,0,22,27,18,28,1,1,1,1,1,9,7,8,8,7,1,1,1,1,1,17,1,1,1,1,1,1,1,1,1,1,1,1,1,1,1,1,1,734.txt
0,0,0,0,0,0,9,7,0,0,27,0,0,0,0,7,0,0,0,11,0,0,30,30,23,29,26,8,29,28,11,10,27,7,28,9,19,11,2,10,9,7,8,8,0,6,6,6,6,6,6,7,0,0,14,23,30,0,0,4,5,11,5,5,11,17,0,0,735.txt
0,0,0,0,0,0,9,7,0,0,27,0,0,0,0,0,0,0,0,7,0,0,30,30,23,29,26,15,29,28,11,22,27,18,28,1,1,1,1,1,9,7,8,8,7,5,5,5,5,5,2,5,4,0,4,23,30,4,4,0,5,11,5,5,3,17,0,0,737.txt
0,0,0,0,0,0,9,7,0,0,27,0,0,0,0,0,0,0,0,7,0,0,30,30,23,29,26,15,29,28,0,22,27,18,28,1,1,1,1,1,9,7,8,8,7,1,1,1,1,1,17,1,1,1,1,1,1,1,1,1,1,1,1,1,1,1,1,1,738.txt
0,0,0,0,0,0,9,7,0,0,27,0,0,0,0,0,0,0,0,7,0,0,30,30,23,29,26,15,29,28,0,22,27,18,28,1,1,1,1,1,9,7,8,8,7,1,1,1,1,1,17,1,1,1,1,1,1,1,1,1,1,1,1,1,1,1,1,1,741.txt
0,0,0,0,0,0,9,7,0,0,27,0,0,0,0,0,0,0,0,7,0,0,30,30,23,29,15,15,29,11,11,22,27,18,28,1,1,1,1,1,7,5,6,7,7,1,1,1,1,1,17,1,0,1,28,1,1,0,0,3,1,11,1,1,3,17,27,0,743.txt
0,0,0,0,0,0,9,7,0,0,27,0,0,0,0,0,0,0,0,7,0,0,30,30,23,29,26,15,29,28,0,22,27,18,28,1,1,1,1,1,9,7,8,8,7,1,1,1,1,1,17,1,1,1,1,1,1,1,1,1,1,1,1,1,1,1,1,1,747.txt
0,0,0,0,0,0,9,7,0,0,27,0,0,0,0,7,0,0,0,11,0,0,30,30,23,29,26,12,29,28,11,0,27,0,28,29,26,23,26,20,9,7,8,8,0,6,6,6,6,6,5,7,0,0,3,10,14,0,0,4,5,11,5,5,10,3,27,10,748.txt
0,0,0,0,0,0,9,7,0,0,27,0,0,0,0,0,0,0,0,7,0,0,30,30,23,29,26,15,29,28,0,22,27,18,28,1,1,1,1,1,9,7,8,8,7,6,6,6,6,6,17,7,0,0,4,23,30,0,0,0,4,11,20,23,3,17,0,0,751.txt
0,14,3,0,0,0,9,7,0,0,27,0,0,0,0,0,0,0,0,11,6,5,10,10,7,6,17,15,6,17,20,6,20,21,15,14,16,19,14,9,3,14,3,10,23,17,18,19,21,18,17,13,11,18,27,29,28,29,12,3,0,11,0,6,2,21,20,18,755.txt
0,0,0,0,0,0,9,7,0,0,27,0,0,0,0,0,0,0,0,7,0,0,30,30,23,29,26,12,29,28,0,22,27,18,28,2,2,2,2,19,9,7,8,8,10,16,16,19,19,18,17,13,13,0,13,23,30,29,10,3,4,28,20,4,3,17,0,0,756.txt
0,0,0,0,0,0,9,7,0,0,27,0,0,0,0,0,0,0,0,7,0,0,30,30,23,29,26,15,29,28,0,22,27,18,28,1,1,1,1,1,9,7,8,8,7,1,1,1,1,1,17,1,1,1,1,1,1,1,1,1,1,1,1,1,1,1,1,1,760.txt
0,0,0,0,0,0,9,7,0,0,27,0,0,0,0,0,0,0,0,7,0,0,30,30,23,29,26,15,29,28,0,22,27,18,28,1,1,1,1,1,9,7,8,8,7,1,1,1,1,1,17,1,1,1,1,1,1,1,1,1,1,1,1,1,1,1,1,1,765.txt
0,0,5,0,22,0,4,4,3,0,2,2,2,2,2,0,0,0,0,7,0,0,30,30,23,29,26,15,29,28,0,22,27,18,28,26,1,1,24,1,9,7,8,8,7,5,5,5,5,5,0,5,4,17,4,23,30,4,4,3,0,12,0,0,3,17,0,0,766.txt
0,0,0,0,0,0,9,7,0,0,27,0,0,0,0,0,0,0,0,7,0,0,30,30,23,29,26,15,29,28,0,22,27,18,28,1,1,1,1,1,9,7,8,8,7,1,1,1,1,1,17,1,0,1,4,1,1,0,0,4,1,11,1,1,3,17,0,0,768.txt
0,0,0,0,0,0,9,7,0,0,27,0,0,0,0,7,0,0,0,11,0,0,30,30,23,29,26,12,29,28,11,22,27,18,28,30,27,24,27,21,9,7,8,8,0,6,6,6,6,6,1,7,0,0,4,23,30,0,0,3,5,11,5,5,10,17,0,0,771.txt
0,0,0,0,0,0,9,7,0,0,27,0,0,0,0,0,0,0,0,7,0,0,30,30,23,29,26,15,29,28,0,22,27,18,28,1,1,1,1,1,9,7,8,8,7,1,1,1,1,1,17,1,4,1,4,1,1,4,4,3,1,11,1,1,3,17,0,0,772.txt
0,0,0,0,0,0,9,7,0,0,27,0,0,0,0,0,0,0,0,7,0,0,30,30,23,29,26,15,29,28,0,22,27,18,28,1,1,1,1,1,10,8,9,9,7,1,1,1,1,1,17,1,1,1,1,1,1,1,1,1,1,1,1,1,1,1,1,1,773.txt
0,0,0,0,0,0,9,7,0,0,27,0,0,0,0,0,0,0,0,7,0,0,30,30,23,29,26,15,29,28,0,22,27,18,28,1,1,1,1,1,9,7,8,8,7,1,1,1,1,1,17,1,1,1,1,1,1,1,1,1,1,1,1,1,1,1,1,1,775.txt
0,0,0,0,0,0,9,7,0,0,27,0,0,0,0,0,0,0,0,11,0,0,30,30,23,29,26,5,29,28,15,22,27,18,28,2,2,2,2,10,9,7,8,8,0,6,6,6,6,6,6,7,0,0,13,23,30,0,0,28,5,29,5,5,3,17,0,0,777.txt
0,0,0,0,0,0,9,7,0,0,27,0,0,0,0,7,0,0,0,11,0,0,30,30,23,29,26,12,29,28,0,12,27,9,28,30,0,25,28,0,9,7,8,8,4,6,6,6,6,6,17,7,0,14,4,17,14,0,0,3,7,11,7,9,11,17,14,5,779.txt
0,0,0,0,0,0,9,7,0,0,27,0,0,0,0,0,0,0,0,7,0,0,30,30,23,29,26,15,29,28,0,22,27,18,28,1,1,1,1,1,9,7,8,8,7,1,1,1,1,1,17,1,1,1,1,1,1,1,1,1,1,1,1,1,1,1,1,1,781.txt
0,0,0,0,0,0,9,7,0,0,27,0,0,0,0,0,0,0,0,7,0,0,30,30,23,29,26,15,29,28,0,22,27,18,28,1,1,1,1,1,9,7,8,8,7,1,1,1,1,1,17,1,0,1,4,1,1,0,0,0,1,11,1,1,3,17,0,0,785.txt
0,0,0,0,0,0,9,7,0,0,27,0,0,0,0,0,0,0,0,7,0,0,30,30,23,29,26,15,29,28,0,22,27,18,28,1,1,1,1,1,9,7,8,8,7,1,1,1,1,1,17,1,1,1,1,1,1,1,1,1,1,1,1,1,1,1,1,1,787.txt
0,2,0,0,0,0,9,7,0,0,27,0,0,0,0,0,0,0,0,7,15,16,16,13,8,12,25,15,3,4,26,4,23,16,10,1,1,1,1,1,3,3,3,3,7,1,1,1,1,1,17,1,0,1,4,1,1,0,0,4,1,11,1,1,3,11,14,14,790.txt
0,0,0,0,0,0,9,7,0,0,27,0,0,0,0,0,0,0,0,7,0,0,30,30,23,29,26,12,29,28,11,22,27,18,28,1,1,1,1,1,9,7,8,8,0,6,6,6,6,6,17,7,0,5,4,10,14,0,0,3,5,11,5,5,3,17,14,4,792.txt
0,0,0,0,0,0,9,7,0,0,27,0,0,0,0,0,0,0,0,7,0,0,30,30,23,29,26,12,29,28,11,10,27,7,28,0,0,0,0,0,9,7,8,8,0,6,6,6,6,6,2,7,0,0,4,23,30,0,0,0,5,11,5,5,3,22,0,0,796.txt
0,0,0,0,0,0,9,7,0,0,27,0,0,0,0,0,0,0,0,7,0,0,30,30,23,29,26,15,29,28,0,22,27,18,28,1,1,1,1,1,9,7,8,8,7,1,1,1,1,1,17,1,0,1,4,1,1,0,0,0,1,11,1,1,3,17,14,3,800.txt
0,0,0,0,0,0,9,7,0,0,27,0,0,0,0,0,0,0,0,7,0,0,30,30,23,29,26,15,29,28,0,22,27,18,28,1,1,1,1,1,9,7,8,8,7,1,1,1,1,1,17,1,0,1,4,1,1,0,0,0,1,11,1,1,3,17,14,0,802.txt
0,0,0,0,3,0,28,28,0,0,27,0,0,0,0,7,0,0,0,11,0,0,30,30,23,29,26,0,29,28,11,0,27,0,28,16,4,15,4,4,9,7,8,8,4,6,7,6,6,7,17,7,0,11,3,17,14,24,0,3,5,0,5,5,10,22,22,11,806.txt
0,0,0,0,0,0,9,7,0,0,27,0,0,0,0,0,0,0,0,7,0,0,30,30,23,29,26,15,29,28,0,22,27,18,28,1,1,1,1,1,9,7,8,8,7,1,1,1,1,1,17,1,1,1,1,1,1,1,1,1,1,1,1,1,1,1,1,1,807.txt
0,0,0,0,0,0,9,7,0,0,4,0,0,0,0,0,0,0,0,7,0,0,0,0,0,0,0,2,0,0,0,9,0,6,0,1,1,1,1,1,9,7,8,8,1,1,1,1,1,1,0,1,1,1,1,1,1,1,1,1,1,1,1,1,1,1,1,1,810.txt
0,0,0,0,0,0,9,7,0,0,27,0,0,0,0,0,0,0,0,7,0,0,30,30,23,29,26,15,29,28,0,22,27,18,28,1,1,1,1,1,9,7,8,8,7,1,1,1,1,1,17,1,1,1,1,1,1,1,1,1,1,1,1,1,1,1,1,1,813.txt
12,15,3,29,2,21,24,8,18,13,10,20,8,14,17,18,24,19,18,17,22,18,17,17,20,17,10,21,19,22,21,30,19,23,24,18,23,19,6,16,3,3,3,3,21,5,5,5,5,5,17,5,4,20,28,13,13,4,4,11,14,25,25,25,28,27,17,23,816.txt
0,0,0,0,3,0,9,29,0,0,27,0,0,0,0,7,0,0,0,11,0,0,30,30,23,29,26,15,29,28,0,22,27,18,28,29,26,23,26,20,9,7,8,8,7,2,2,2,2,2,17,2,1,2,1,2,2,1,1,1,2,1,2,2,1,1,1,1,817.txt
0,0,0,0,0,0,9,7,0,0,27,0,0,0,0,0,0,0,0,7,0,0,30,30,23,29,26,15,29,28,11,22,27,18,28,1,1,1,1,1,9,7,8,8,7,5,5,5,5,5,2,5,4,15,4,6,6,4,4,3,8,11,8,10,3,17,14,9,818.txt
0,0,0,0,0,0,9,7,0,0,27,0,0,0,0,0,0,0,0,0,0,0,30,30,23,29,26,15,29,28,0,22,27,18,28,29,26,23,26,20,9,7,8,8,7,2,2,2,2,2,17,2,1,2,1,2,2,1,1,1,2,1,2,2,1,1,1,1,821.txt
0,0,0,0,0,0,9,7,0,0,27,0,0,0,0,0,0,0,0,11,0,0,30,30,23,29,26,0,29,28,11,0,27,0,28,29,26,23,26,20,9,7,8,8,0,6,6,6,6,6,6,7,0,0,4,23,30,0,0,3,5,11,5,5,3,17,0,0,824.txt
0,0,0,0,0,0,9,7,0,0,27,0,0,0,0,0,0,0,0,7,0,0,30,30,23,29,26,15,29,28,11,22,27,18,28,1,1,1,1,1,0,0,0,0,7,6,6,6,6,6,2,6,5,15,22,6,22,5,26,13,5,11,5,5,3,7,14,9,827.txt
0,2,1,0,0,0,9,7,0,0,27,0,0,0,0,0,0,0,0,11,12,13,17,14,8,12,11,0,3,4,17,1,13,29,10,29,26,23,26,20,4,10,10,12,0,6,6,6,6,6,2,7,0,5,4,14,5,0,0,0,5,11,5,5,3,11,14,14,831.txt
0,0,0,0,0,0,9,7,0,0,27,0,0,0,0,0,0,0,0,7,0,0,30,30,23,29,26,15,29,28,0,22,27,18,28,1,1,1,1,1,9,7,8,8,7,1,1,1,1,1,17,1,1,1,1,1,1,1,1,1,1,1,1,1,1,1,1,1,832.txt
0,0,0,0,0,0,9,7,0,0,27,0,0,0,0,0,0,0,0,7,0,0,30,30,23,29,26,15,29,28,0,22,27,18,28,1,1,1,1,1,9,7,8,8,7,6,6,6,6,6,17,7,0,0,4,23,30,0,0,4,5,11,5,5,3,17,0,0,834.txt
0,0,0,0,0,0,9,7,0,0,27,0,0,0,0,0,0,0,0,7,0,0,30,30,23,29,26,15,29,28,11,22,27,18,28,1,1,1,1,1,9,7,8,8,7,6,6,6,6,6,17,7,0,5,28,8,9,0,0,7,5,12,5,5,3,17,22,9,836.txt
0,0,0,0,0,0,9,7,0,0,27,0,0,0,0,0,0,0,0,7,0,0,30,30,23,29,26,15,29,28,11,22,27,18,28,1,1,1,1,1,9,7,8,8,7,6,7,6,6,7,17,7,0,17,4,17,17,24,0,3,27,11,25,25,3,17,14,4,839.txt
0,2,0,0,0,0,9,7,0,0,27,0,0,0,0,0,0,0,0,7,2,2,2,2,7,2,11,15,7,4,27,4,13,16,10,1,1,1,1,1,3,3,3,3,7,1,1,1,1,1,17,1,0,1,4,1,1,0,0,16,1,11,1,1,3,29,14,27,842.txt
0,0,0,0,0,0,9,7,0,0,27,0,0,0,0,0,0,0,0,7,0,0,30,30,23,29,26,15,29,28,0,22,27,18,28,1,1,1,1,1,9,7,8,8,7,1,1,1,1,1,17,1,1,1,1,1,1,1,1,1,1,1,1,1,1,1,1,1,847.txt
0,0,0,0,0,0,9,7,0,0,27,0,0,0,0,0,0,0,0,7,0,0,30,30,23,29,26,15,29,28,0,22,27,18,28,1,1,1,1,1,9,7,8,8,7,1,1,1,1,1,17,1,1,1,1,1,1,1,1,1,1,1,1,1,1,1,1,1,851.txt
0,0,0,0,0,0,9,7,8,0,27,0,0,0,0,7,7,6,5,11,10,9,8,8,10,9,26,8,10,28,11,12,7,9,8,29,26,23,26,20,9,7,8,8,0,6,6,6,6,6,4,7,0,15,4,6,6,0,0,13,5,11,5,5,4,3,14,26,852.txt
0,0,0,0,0,0,9,7,0,0,27,0,0,0,0,0,0,0,0,7,0,0,30,30,23,29,26,15,29,28,0,22,27,18,28,1,1,1,1,1,9,7,8,8,7,6,6,6,6,6,17,7,0,21,4,2,13,0,0,11,27,11,12,7,2,17,14,4,855.txt
0,0,0,0,0,0,9,7,0,0,27,0,0,0,0,0,0,0,0,11,0,0,30,30,23,29,26,0,29,28,11,10,27,7,28,4,4,4,4,10,9,7,8,8,0,6,6,6,6,6,17,7,0,0,3,23,30,0,0,0,5,0,5,5,3,17,0,0,857.txt
0,0,0,0,0,0,9,7,0,0,27,0,0,0,0,0,0,0,0,7,0,0,30,30,23,29,26,15,29,28,0,22,25,18,26,1,1,1,1,1,10,8,9,9,7,1,1,1,1,1,17,1,1,1,1,1,1,1,1,1,1,1,1,1,1,1,1,1,859.txt
0,0,0,0,0,0,9,7,0,0,27,0,0,0,0,0,0,0,0,7,0,0,30,30,23,29,26,15,29,28,0,22,27,18,28,1,1,1,1,1,9,7,8,8,7,1,1,1,1,1,17,1,1,1,1,1,1,1,1,1,1,1,1,1,1,1,1,1,861.txt
0,0,0,0,0,0,9,7,0,0,27,0,0,0,0,0,0,0,0,7,0,0,30,30,23,29,26,15,29,28,0,22,27,18,28,1,1,1,1,1,9,7,8,8,7,1,1,1,1,1,17,1,1,1,1,1,1,1,1,1,1,1,1,1,1,1,1,1,864.txt
0,0,0,0,0,0,9,7,0,0,27,0,0,0,0,7,0,0,0,11,0,0,30,30,23,29,26,5,29,28,11,22,27,18,28,0,27,24,27,21,9,7,8,8,0,6,7,6,6,7,17,7,0,0,4,23,30,24,0,3,5,11,5,5,10,17,0,0,866.txt
0,0,0,0,0,0,9,7,0,0,27,0,0,0,0,7,0,0,0,11,0,0,30,30,23,29,26,0,29,28,11,12,27,9,28,30,0,25,28,0,9,7,8,8,4,6,6,6,6,6,10,7,0,11,4,10,14,0,0,4,5,11,5,5,10,17,14,4,868.txt
0,0,0,0,0,0,9,7,0,0,27,0,0,0,0,7,0,0,0,11,0,0,30,30,23,29,26,12,29,28,0,22,27,18,28,29,26,23,26,20,9,7,8,8,0,2,2,2,2,2,17,2,0,2,4,2,2,24,0,13,2,29,2,2,4,17,14,6,870.txt
0,0,0,0,0,0,9,7,0,0,27,0,0,0,0,0,0,0,0,7,0,0,30,30,23,29,26,15,29,28,0,22,27,18,28,1,1,1,1,1,9,7,8,8,7,1,1,1,1,1,17,1,1,1,1,1,1,1,1,1,1,1,1,1,1,1,1,1,872.txt
0,0,0,0,0,0,9,7,0,0,27,0,0,0,0,0,0,0,0,7,0,0,30,30,23,29,15,15,29,11,11,22,27,18,28,30,27,24,27,21,7,5,6,7,0,6,6,6,6,6,1,7,0,0,4,23,30,0,0,4,5,11,5,5,3,17,0,0,874.txt
0,0,0,0,0,0,9,7,0,0,27,0,0,0,0,0,0,0,0,7,0,0,30,30,23,29,26,15,29,28,0,22,27,18,28,1,1,1,1,1,9,7,8,8,7,1,1,1,1,1,17,1,1,1,1,1,1,1,1,1,1,1,1,1,1,1,1,1,879.txt
0,0,0,0,0,0,9,7,0,0,27,0,0,0,0,0,0,0,0,7,0,0,30,30,23,29,26,15,29,28,0,22,27,18,28,1,1,1,1,1,9,7,8,8,7,1,1,1,1,1,17,1,1,1,1,1,1,1,1,1,1,1,1,1,1,1,1,1,882.txt
0,0,0,0,0,0,9,7,0,0,27,0,0,0,0,7,0,0,0,11,0,0,30,30,23,29,15,12,29,11,11,22,27,18,28,29,26,23,26,20,7,5,6,7,10,19,4,19,4,29,17,13,27,30,14,30,6,14,3,3,5,11,5,5,4,17,14,4,884.txt
0,0,0,0,0,0,9,7,0,0,27,0,0,0,0,0,0,0,0,7,0,0,30,30,23,29,26,15,29,28,0,22,27,18,28,1,1,1,1,1,9,7,8,8,7,1,1,1,1,1,17,1,1,1,1,1,1,1,1,1,1,1,1,1,1,1,1,1,885.txt
0,0,0,0,0,0,9,7,0,0,27,0,0,0,0,0,0,0,0,7,0,0,30,30,23,29,26,15,29,28,0,22,27,18,28,1,1,1,1,1,9,7,8,8,7,1,1,1,1,1,17,1,1,1,1,1,1,1,1,1,1,1,1,1,1,1,1,1,886.txt
0,0,0,0,0,0,9,7,0,0,27,0,0,0,0,0,0,0,0,7,0,0,30,30,23,29,26,15,29,28,11,22,27,18,28,1,1,1,1,1,9,7,8,8,7,6,6,6,6,6,17,7,0,0,4,23,30,0,0,0,5,11,5,5,3,17,0,0,889.txt
0,0,0,0,0,0,9,7,0,0,27,0,0,0,0,0,0,0,0,7,0,0,30,30,23,29,26,15,29,28,0,22,27,18,28,1,1,1,1,1,9,7,8,8,7,2,2,2,2,2,17,2,1,2,1,2,2,1,1,1,2,1,2,2,1,1,1,1,891.txt
0,0,0,0,0,0,9,7,0,0,27,0,0,0,0,0,0,0,0,7,0,0,30,30,23,29,26,15,29,28,11,22,27,18,28,1,1,1,1,1,9,7,8,8,7,6,6,6,6,6,17,7,0,0,4,23,30,0,0,0,5,11,5,5,3,17,0,0,893.txt
0,0,0,0,0,0,9,7,0,0,4,0,0,0,0,0,0,0,0,7,0,0,30,30,23,29,26,0,29,28,11,22,27,18,28,0,27,24,27,21,9,7,8,8,0,6,6,6,6,6,2,7,0,0,4,23,30,0,0,0,4,11,4,23,3,17,0,0,896.txt
0,2,0,0,0,0,9,7,0,0,27,0,0,0,0,0,0,0,0,7,6,5,10,10,7,12,1,8,7,4,1,1,1,29,10,29,26,23,26,20,1,16,11,1,0,6,6,6,6,6,17,7,0,0,4,23,30,0,0,0,5,11,5,5,3,11,0,2,900.txt
0,0,0,0,0,0,9,7,0,0,27,0,0,0,0,0,0,0,0,7,0,0,30,30,23,29,26,15,29,28,11,22,27,18,28,1,1,1,1,1,9,7,8,8,7,1,1,1,1,1,17,1,1,1,1,1,1,1,1,1,1,1,1,1,1,1,1,1,902.txt
12,2,3,5,2,21,3,3,5,10,3,3,9,3,17,18,6,12,3,5,6,5,10,10,7,6,12,4,6,17,5,4,20,10,15,30,27,24,27,21,3,13,3,3,7,10,9,10,10,24,27,9,7,14,8,2,6,7,7,3,10,11,11,12,2,21,2,12,905.txt
0,0,0,0,0,0,9,7,0,0,27,0,0,0,0,0,0,0,0,7,0,0,30,30,23,29,26,15,29,28,11,22,27,18,28,1,1,1,1,1,9,7,8,8,7,1,1,1,1,1,17,1,1,1,1,1,1,1,1,1,1,1,1,1,1,1,1,1,907.txt
0,0,0,0,0,0,9,7,0,0,27,0,0,0,0,0,0,0,0,7,0,0,30,30,23,29,26,15,29,28,0,22,27,18,28,1,1,1,1,1,0,0,0,0,7,1,1,1,1,1,17,1,1,1,1,1,1,1,1,1,1,1,1,1,1,1,1,1,909.txt
0,0,0,0,0,0,9,7,0,0,27,0,0,0,0,0,0,0,0,11,0,0,30,30,23,29,26,12,29,28,11,10,27,7,28,29,26,23,26,20,9,7,8,8,0,6,6,6,6,6,6,7,0,0,4,23,30,0,0,13,5,11,5,5,3,17,0,0,911.txt
0,0,0,0,0,0,9,7,0,0,27,0,0,0,0,0,0,0,0,11,0,0,30,30,23,29,26,15,29,28,0,22,27,18,28,27,3,27,15,3,0,0,0,0,7,2,2,2,2,2,17,2,1,2,1,2,2,1,1,1,2,1,2,2,1,1,1,1,914.txt
26,2,1,15,1,12,22,18,15,8,6,29,7,30,17,26,24,14,1,19,24,24,1,1,1,1,11,25,1,1,27,4,13,28,10,30,0,25,28,0,22,18,11,22,4,8,6,22,8,6,10,7,0,5,4,29,5,0,0,0,4,11,20,23,13,30,20,13,917.txt
0,2,0,0,0,0,9,7,0,0,27,0,0,0,0,0,0,0,0,7,2,2,2,2,2,2,2,15,2,2,2,3,3,3,3,1,1,1,1,1,3,3,3,3,7,1,1,1,1,1,17,1,1,1,1,1,1,1,1,1,1,1,1,1,1,1,1,1,922.txt
0,0,0,0,0,0,9,7,0,0,27,0,0,0,0,0,0,0,0,7,0,0,30,30,23,29,26,15,29,28,0,22,27,18,28,1,1,1,1,1,9,7,8,8,7,5,5,5,5,5,17,5,1,18,1,2,13,1,1,1,27,1,12,7,1,1,1,1,924.txt
0,0,0,0,0,0,9,7,0,0,27,0,0,0,0,0,0,0,0,7,0,0,30,30,23,29,26,15,29,28,0,22,27,18,28,1,1,1,1,1,10,8,9,9,7,1,1,1,1,1,17,1,0,1,4,1,1,0,0,0,1,11,1,1,3,17,0,0,925.txt
0,0,0,0,0,0,9,7,0,0,27,0,0,0,0,0,0,0,0,7,0,0,30,30,23,29,26,15,29,28,11,22,27,18,28,1,1,1,1,1,9,7,8,8,7,6,6,6,6,6,17,7,0,0,4,23,30,0,0,0,5,11,5,5,3,17,0,0,926.txt
0,0,0,0,0,0,9,7,0,0,27,0,0,0,0,7,0,0,0,11,12,13,16,13,1,1,11,8,1,1,27,1,11,29,6,29,26,23,26,20,1,16,14,22,0,6,6,6,6,6,20,7,0,28,3,23,30,0,0,4,5,11,5,5,10,11,0,2,928.txt
0,0,0,0,0,0,9,7,0,0,27,0,0,0,0,0,0,0,0,7,0,0,30,30,23,29,26,12,29,28,11,22,27,18,28,1,1,1,1,1,9,7,8,8,0,6,6,6,6,6,2,7,0,5,4,23,30,0,0,0,5,11,5,5,3,17,0,0,930.txt
0,0,0,0,0,0,9,7,0,0,27,0,0,0,0,0,0,0,0,7,0,0,30,30,23,29,26,15,29,28,0,22,27,18,28,1,1,1,1,1,9,7,8,8,7,5,5,5,5,5,17,5,4,15,4,24,14,4,4,16,5,12,5,5,3,3,14,5,932.txt
12,2,1,5,2,8,22,18,2,4,3,3,3,3,3,3,3,3,3,3,2,2,2,2,2,2,2,4,2,2,2,3,3,3,3,1,1,1,1,1,3,3,3,3,7,1,1,1,1,1,17,1,1,1,1,1,1,1,1,1,1,1,1,1,1,1,1,1,935.txt
0,0,0,0,0,0,9,7,0,0,27,0,0,0,0,0,0,0,0,11,0,0,30,30,23,29,26,12,29,28,11,10,27,7,28,2,2,2,2,10,9,7,8,8,0,6,6,6,6,6,6,7,0,7,6,6,8,0,0,3,5,11,5,5,3,17,5,4,940.txt
0,0,0,0,0,0,9,7,0,0,27,0,0,0,0,0,0,0,0,7,0,0,30,30,23,29,26,15,29,28,11,22,27,18,28,1,1,1,1,1,9,7,8,8,7,6,6,6,6,6,2,7,0,0,28,23,30,0,0,0,5,12,5,5,3,17,0,0,942.txt
16,2,1,15,1,30,22,18,15,24,14,12,30,25,12,27,18,13,20,22,22,18,18,14,20,12,19,11,7,15,29,28,13,19,13,17,22,20,20,29,4,10,10,12,21,23,29,23,28,30,25,25,15,25,25,29,11,21,17,10,30,25,17,20,4,12,4,28,944.txt
0,0,0,0,0,0,9,7,0,0,27,0,0,0,0,0,0,0,0,7,0,0,30,30,23,29,26,15,29,28,0,22,27,18,28,1,1,1,1,1,9,7,8,8,7,1,1,1,1,1,17,1,1,1,1,1,1,1,1,1,1,1,1,1,1,1,1,1,946.txt
0,0,0,0,0,0,9,7,0,0,27,0,0,0,0,0,0,0,0,7,0,0,30,30,23,29,26,15,29,28,11,22,27,18,28,1,1,1,1,1,9,7,8,8,7,1,1,1,1,1,17,1,0,1,4,1,1,0,0,3,1,11,1,1,3,17,14,9,949.txt
0,0,0,0,0,0,9,7,0,0,27,0,0,0,0,0,0,0,0,11,0,0,30,30,23,29,26,15,29,28,0,22,27,18,28,9,8,11,7,10,9,7,8,8,7,2,2,2,2,2,17,2,13,2,28,2,2,18,9,3,2,11,2,2,3,17,0,0,951.txt
0,0,0,0,0,0,9,7,0,0,27,0,0,0,0,0,0,0,0,11,0,0,30,30,23,29,26,12,29,28,11,12,27,9,28,29,26,23,26,20,9,7,8,8,0,6,6,6,6,6,6,7,0,7,4,6,6,0,0,0,5,11,5,5,3,17,14,4,954.txt
0,0,0,0,0,0,9,7,0,0,27,0,0,0,0,0,0,0,0,11,0,0,30,30,23,29,26,15,29,28,0,22,27,18,28,29,26,23,26,20,0,0,0,0,7,2,2,2,2,2,17,2,2,2,2,2,2,27,27,13,2,13,2,2,3,17,14,4,956.txt
0,0,0,0,0,0,9,7,0,0,27,0,0,0,0,0,0,0,0,7,2,2,2,2,2,2,2,15,2,2,2,3,3,3,3,1,1,1,1,1,3,3,3,3,7,1,1,1,1,1,17,1,1,1,1,1,1,1,1,1,1,1,1,1,1,1,1,1,959.txt
0,0,0,0,0,0,9,7,0,0,27,0,0,0,0,0,0,0,0,7,0,0,30,30,23,29,26,15,29,28,0,22,27,18,28,1,1,1,1,1,9,7,8,8,7,1,1,1,1,1,17,1,1,1,1,1,1,1,1,1,1,1,1,1,1,1,1,1,961.txt
0,0,0,0,0,0,9,7,0,0,27,0,0,0,0,0,0,0,0,7,0,0,30,30,23,29,26,15,29,28,0,22,27,18,28,1,1,1,1,1,10,8,9,9,7,1,1,1,1,1,17,1,1,1,1,1,1,1,1,1,1,1,1,1,1,1,1,1,962.txt
0,0,0,0,0,0,9,7,0,0,27,0,0,0,0,0,7,6,5,7,0,0,30,30,23,29,26,15,29,28,11,22,27,18,28,1,1,1,1,1,9,7,8,8,9,5,5,5,5,5,2,5,4,7,4,6,3,4,4,4,5,11,5,5,3,7,14,0,964.txt
0,0,0,0,0,0,9,7,0,0,27,0,0,0,0,0,0,0,0,7,0,0,30,30,23,29,26,15,29,28,11,22,27,18,28,1,1,1,1,1,9,7,8,8,7,6,6,6,6,6,2,7,0,15,4,6,6,0,0,8,5,11,5,5,3,17,14,4,966.txt
0,0,0,0,0,0,9,7,0,0,27,0,0,0,0,0,0,0,0,7,0,0,30,30,23,29,26,15,29,28,0,22,27,18,28,1,1,1,1,1,9,7,8,8,7,1,1,1,1,1,17,1,4,1,4,1,1,4,4,3,1,11,1,1,3,17,14,4,968.txt
0,0,0,0,0,0,9,7,0,0,27,0,0,0,0,0,0,0,0,7,0,0,30,30,23,29,26,15,29,28,0,22,27,18,28,1,1,1,1,1,9,7,8,8,7,1,1,1,1,1,17,1,1,1,1,1,1,1,1,1,1,1,1,1,1,1,1,1,970.txt
0,0,0,0,0,0,9,7,0,0,27,0,0,0,0,0,0,0,0,7,0,0,30,30,23,29,26,15,29,28,0,22,27,18,28,1,1,1,1,1,9,7,8,8,7,1,1,1,1,1,17,1,1,1,1,1,1,1,1,1,1,1,1,1,1,1,1,1,974.txt
0,0,0,0,0,0,9,7,0,0,27,0,0,0,0,0,0,0,0,7,0,0,30,30,23,29,26,15,29,28,0,22,27,18,28,1,1,1,1,1,0,0,0,0,7,1,1,1,1,1,17,1,1,1,1,1,1,1,1,1,1,1,1,1,1,1,1,1,975.txt
0,0,0,0,0,0,9,7,0,0,27,0,0,0,0,14,0,0,0,7,0,0,30,30,23,29,26,15,29,28,11,22,25,18,26,1,1,1,1,1,9,7,8,8,7,1,1,1,1,1,17,1,15,1,25,1,1,17,17,10,1,20,1,1,4,17,4,9,979.txt
0,0,0,6,28,0,9,29,0,11,24,9,10,18,20,14,0,0,0,11,4,30,3,3,3,29,4,15,29,6,15,22,27,18,28,29,26,23,26,20,9,7,8,8,7,20,18,19,21,20,7,13,29,30,4,30,6,12,12,13,0,11,0,6,4,17,27,10,981.txt
0,0,0,0,0,0,9,7,0,0,27,0,0,0,0,0,0,0,0,7,0,0,30,30,23,29,26,15,29,28,0,22,27,18,28,1,1,1,1,1,9,7,8,8,7,1,1,1,1,1,17,1,0,1,4,1,1,0,0,0,1,11,1,1,3,17,0,0,987.txt
0,0,0,0,0,0,9,7,0,0,27,0,0,0,0,0,0,0,0,7,0,0,30,30,23,29,26,15,29,28,0,22,27,18,28,1,1,1,1,1,9,7,8,8,7,5,5,5,5,5,13,5,4,0,28,26,13,4,4,16,0,12,0,6,3,17,27,5,989.txt
26,2,1,15,1,30,22,18,13,8,6,29,7,30,17,25,3,14,1,3,12,13,15,15,19,12,25,9,7,4,26,16,23,5,4,1,1,1,1,1,4,3,10,17,6,6,6,6,6,6,9,7,0,0,0,14,5,0,0,0,5,2,5,5,3,13,14,17,994.txt
0,0,0,0,0,0,9,7,0,0,27,0,0,0,0,0,0,0,0,7,0,0,30,30,23,29,26,15,29,28,0,22,27,18,28,1,1,1,1,1,9,7,8,8,7,1,1,1,1,1,17,1,1,1,1,1,1,1,1,1,1,1,1,1,1,1,1,1,996.txt
0,0,0,0,0,0,9,7,0,0,27,0,0,0,0,0,0,0,0,7,0,0,30,30,23,29,26,15,29,28,0,22,27,18,28,1,1,1,1,1,9,7,8,8,7,1,1,1,1,1,17,1,4,1,4,1,1,4,4,3,1,11,1,1,3,17,0,0,998.txt
0,0,0,0,0,0,9,7,0,0,27,0,0,0,0,0,0,0,0,7,0,0,30,30,23,29,26,15,29,28,0,22,27,18,28,1,1,1,1,1,9,7,8,8,7,1,1,1,1,1,17,1,1,1,1,1,1,1,1,1,1,1,1,1,1,1,1,1,1002.txt
0,0,0,0,0,0,9,7,27,0,27,0,0,0,0,0,0,0,0,7,0,0,30,30,23,29,26,15,29,28,0,22,25,18,26,1,1,1,1,1,9,7,8,8,7,2,2,2,2,2,17,2,1,2,1,2,2,1,1,1,2,1,2,2,1,1,1,1,1005.txt
0,0,0,0,0,0,9,7,0,0,27,0,0,0,0,0,0,0,0,7,0,0,30,30,23,29,26,15,29,28,0,22,27,18,28,1,1,1,1,1,9,7,8,8,7,1,1,1,1,1,17,1,1,1,1,1,1,1,1,1,1,1,1,1,1,1,1,1,1008.txt
0,0,0,0,0,0,9,7,0,0,27,0,0,0,0,0,0,0,0,7,0,0,30,30,23,29,26,15,29,28,11,22,27,18,28,1,1,1,1,1,9,7,8,8,7,1,1,1,1,1,17,1,4,1,4,1,1,4,4,3,1,11,1,1,3,17,14,9,1010.txt
0,0,0,0,0,0,9,7,0,0,27,0,0,0,0,0,0,0,0,7,0,0,30,30,23,29,26,15,29,28,0,22,27,18,28,1,1,1,1,1,9,7,8,8,7,1,1,1,1,1,17,1,1,1,1,1,1,1,1,1,1,1,1,1,1,1,1,1,1013.txt
0,0,0,0,0,0,9,7,0,0,27,0,0,0,0,0,0,0,0,7,0,0,30,30,23,29,26,15,29,28,11,22,27,18,28,1,1,1,1,1,9,7,8,8,7,1,1,1,1,1,17,1,0,1,4,1,1,0,0,3,1,11,1,1,3,17,14,4,1015.txt
0,0,0,0,0,0,9,7,0,0,27,0,0,0,0,0,0,0,0,7,0,0,30,30,23,29,26,15,29,28,0,22,27,18,28,1,1,1,1,1,9,7,8,8,7,1,1,1,1,1,17,1,1,1,1,1,1,1,1,1,1,1,1,1,1,1,1,1,1018.txt
26,2,3,29,4,12,24,11,5,8,10,20,7,14,17,18,24,12,18,17,30,5,10,22,7,6,17,27,6,17,22,26,19,10,15,14,23,20,2,25,17,17,14,28,21,18,15,17,17,29,27,10,12,20,28,26,14,14,12,3,5,25,5,5,2,11,25,14,1020.txt
0,0,0,0,0,0,9,7,0,0,27,0,0,0,0,7,0,0,0,9,0,0,30,30,23,29,26,5,29,28,15,22,27,18,28,17,23,19,19,25,9,7,8,8,10,17,18,19,21,18,12,13,11,11,14,29,11,29,12,3,27,11,25,25,5,17,27,4,1022.txt
0,0,0,0,0,0,9,7,0,0,27,0,0,0,0,0,0,0,0,7,0,0,30,30,23,29,26,15,29,28,11,22,27,18,28,1,1,1,1,1,9,7,8,8,6,6,6,6,6,6,2,7,0,15,4,6,10,0,0,16,7,11,7,9,3,7,14,9,1025.txt
0,0,0,0,0,0,9,7,0,0,27,0,0,0,0,0,0,0,0,7,0,0,30,30,23,29,26,15,29,28,11,22,27,18,28,1,1,1,1,1,9,7,8,8,7,15,13,15,15,3,17,3,2,5,2,17,14,27,27,24,11,0,15,13,3,7,4,9,1027.txt
0,0,5,0,22,0,4,9,3,0,2,2,14,2,18,7,0,0,0,11,0,0,30,30,23,29,26,12,29,28,15,22,27,18,28,0,27,24,27,21,9,7,8,8,4,2,2,2,2,2,17,2,22,2,4,2,2,24,0,3,2,11,2,2,10,17,14,4,1030.txt
0,0,0,0,0,0,9,7,0,0,27,0,0,0,0,0,0,0,0,7,0,0,30,30,23,29,26,15,29,28,0,22,27,18,28,1,1,1,1,1,9,7,8,8,7,1,1,1,1,1,17,1,1,1,1,1,1,1,1,1,1,1,1,1,1,1,1,1,1036.txt
0,0,0,0,0,0,9,7,0,0,27,0,0,0,0,0,0,0,0,7,0,0,30,30,23,29,26,15,29,28,0,22,27,18,28,1,1,1,1,1,9,7,8,8,7,1,1,1,1,1,17,1,1,1,1,1,1,1,1,1,1,1,1,1,1,1,1,1,1041.txt
0,0,0,0,0,0,9,7,0,0,27,0,0,0,0,0,0,0,0,11,0,0,30,30,23,29,26,0,29,28,11,12,27,9,28,0,0,0,0,0,9,7,8,8,16,8,7,22,8,7,4,7,0,15,4,6,22,26,0,14,4,11,4,23,13,7,17,26,1043.txt
0,0,0,0,0,0,9,7,0,0,27,0,0,0,0,0,0,0,0,7,0,0,30,30,23,29,26,15,29,28,0,22,27,18,28,1,1,1,1,1,9,7,8,8,7,2,2,2,2,2,17,2,1,2,1,2,2,1,1,1,2,1,2,2,1,1,1,1,1045.txt
0,0,0,0,0,0,9,7,0,0,27,0,0,0,0,0,0,0,0,7,0,0,30,30,23,29,26,15,29,28,0,22,27,18,28,1,1,1,1,1,9,7,8,8,7,1,1,1,1,1,17,1,1,1,1,1,1,1,1,1,1,1,1,1,1,1,1,1,1046.txt
0,0,0,0,0,0,9,7,0,0,27,0,0,0,0,7,0,0,0,11,0,0,30,30,23,29,26,0,29,28,11,0,27,0,28,29,26,23,26,20,9,7,8,8,16,6,6,6,6,6,17,7,0,28,3,16,11,0,0,10,8,11,8,10,10,17,14,4,1048.txt
0,0,0,0,0,0,9,7,0,0,27,0,0,0,0,0,0,0,0,7,0,0,30,30,23,29,26,15,29,28,0,22,27,18,28,1,1,1,1,1,9,7,8,8,7,1,1,1,1,1,17,1,0,1,4,1,1,0,0,0,1,11,1,1,3,17,14,3,1051.txt
0,0,0,0,0,0,9,7,0,0,27,0,0,0,0,0,0,0,0,7,0,0,30,30,23,29,26,15,29,28,0,22,27,18,28,1,1,1,1,1,9,7,8,8,7,1,1,1,1,1,17,1,1,1,1,1,1,1,1,1,1,1,1,1,1,1,1,1,1054.txt
0,0,0,0,0,29,11,13,0,0,18,0,0,0,0,14,0,0,0,26,0,0,30,30,23,5,26,15,27,28,6,22,5,18,5,19,1,1,22,1,9,7,8,8,7,1,1,1,1,1,2,1,2,1,2,1,1,9,16,3,1,11,1,1,5,22,14,4,1057.txt
0,0,0,0,0,0,9,7,0,0,27,0,0,0,0,0,0,0,0,7,0,0,30,30,23,29,26,15,29,28,0,22,27,18,28,1,1,1,1,1,9,7,8,8,7,1,1,1,1,1,17,1,0,1,28,1,1,0,0,3,1,11,1,1,3,17,0,0,1059.txt
0,0,0,0,0,0,9,7,0,0,27,0,0,0,0,0,0,0,0,7,0,0,30,30,23,29,26,15,29,28,0,22,27,18,28,1,1,1,1,1,9,7,8,8,7,1,1,1,1,1,17,1,1,1,1,1,1,1,1,1,1,1,1,1,1,1,1,1,1060.txt
0,0,0,0,0,0,9,7,0,0,27,0,0,0,0,0,0,0,0,7,0,0,30,30,23,29,26,15,29,28,0,22,27,18,28,1,1,1,1,1,9,7,8,8,7,1,1,1,1,1,2,1,0,1,17,1,1,0,24,0,1,11,1,1,3,17,14,4,1064.txt
0,0,0,0,0,0,9,7,0,0,27,0,0,0,0,0,0,0,0,7,0,0,30,30,23,29,26,15,29,28,0,22,27,18,28,1,1,1,1,1,9,7,8,8,7,1,1,1,1,1,17,1,1,1,1,1,1,1,1,1,1,1,1,1,1,1,1,1,1069.txt
0,0,0,0,0,0,9,7,0,0,27,0,0,0,0,0,0,0,0,7,0,0,30,30,23,29,26,15,29,28,0,22,27,18,28,1,1,1,1,1,0,0,0,0,7,1,1,1,1,1,17,1,1,1,1,1,1,1,1,1,1,1,1,1,1,1,1,1,1071.txt
0,0,0,0,0,0,9,7,0,0,27,0,0,0,0,0,0,0,0,7,0,0,30,30,23,29,26,15,29,28,0,22,27,18,28,1,1,1,1,1,9,7,8,8,7,1,1,1,1,1,17,1,1,1,1,1,1,1,1,1,1,1,1,1,1,1,1,1,1073.txt
0,0,5,0,22,0,4,9,3,0,2,2,14,2,18,0,0,0,0,11,0,0,30,30,23,29,26,12,29,28,0,12,27,9,28,29,26,23,26,20,9,7,8,8,4,2,2,2,2,2,17,2,2,2,2,2,2,7,7,3,2,11,2,2,3,17,14,4,1075.txt
0,0,0,0,0,0,9,7,0,0,27,0,0,0,0,0,0,0,0,7,0,0,30,30,23,29,26,15,29,28,0,22,27,18,28,1,1,1,1,1,9,7,8,8,7,1,1,1,1,1,17,1,1,1,1,1,1,1,1,1,1,1,1,1,1,1,1,1,1076.txt
0,0,0,0,0,0,9,7,0,0,27,0,0,0,0,0,0,0,0,7,0,0,30,30,23,29,26,15,29,28,11,22,27,18,28,1,1,1,1,1,9,7,8,8,7,6,6,6,6,6,17,7,0,0,4,23,30,0,0,0,5,11,5,5,3,17,0,0,1078.txt
0,0,0,0,0,0,9,7,0,0,27,0,0,0,0,0,0,0,0,7,0,0,30,30,23,29,26,15,29,28,0,22,27,18,28,1,1,1,1,1,9,7,8,8,7,1,1,1,1,1,17,1,1,1,1,1,1,1,1,1,1,1,1,1,1,1,1,1,1080.txt
0,0,0,0,0,0,9,7,0,0,27,0,0,0,0,0,0,0,0,7,0,0,30,30,23,29,26,15,29,28,0,22,27,18,28,1,1,1,1,1,9,7,8,8,7,2,2,2,2,2,17,2,1,2,1,2,2,1,1,1,2,1,2,2,1,1,1,1,1082.txt
0,0,0,0,0,0,9,7,0,0,27,0,0,0,0,0,0,0,0,7,0,0,30,30,23,29,26,15,29,28,0,22,27,18,28,1,1,1,1,1,0,0,0,0,7,2,2,2,2,2,17,2,1,2,1,2,2,1,1,1,2,1,2,2,1,1,1,1,1084.txt
0,0,0,0,0,0,9,7,0,0,27,0,0,0,0,0,0,0,0,7,0,0,30,30,23,29,26,15,29,28,0,22,27,18,28,1,1,1,1,1,9,7,8,8,7,1,1,1,1,1,17,1,1,1,1,1,1,1,1,1,1,1,1,1,1,1,1,1,1086.txt
0,0,5,0,22,0,28,28,0,0,27,0,0,0,0,0,0,0,0,11,0,0,30,30,23,29,26,15,29,28,0,22,27,18,28,29,26,23,26,20,9,7,8,8,7,2,2,2,2,2,17,2,1,2,1,2,2,1,1,1,2,1,2,2,1,1,1,1,1088.txt
0,2,0,0,0,0,9,7,0,0,27,0,0,0,0,0,0,0,0,7,2,2,2,2,2,2,2,15,2,2,2,3,3,3,3,1,1,1,1,1,3,3,3,3,7,1,1,1,1,1,17,1,1,1,1,1,1,1,1,1,1,1,1,1,1,1,1,1,1090.txt
0,0,0,0,0,0,9,7,0,0,27,0,0,0,0,0,0,0,0,11,0,0,0,0,0,0,0,0,0,0,11,0,0,0,0,29,26,23,26,20,9,7,8,8,0,6,6,6,6,6,1,7,0,0,4,23,30,0,0,4,5,0,5,5,3,17,0,0,1093.txt
0,0,0,0,0,0,9,7,0,0,27,0,0,0,0,0,0,0,0,7,0,0,30,30,23,29,26,15,29,28,0,22,27,18,28,1,1,1,1,1,9,7,8,8,7,1,1,1,1,1,17,1,1,1,1,1,1,1,1,1,1,1,1,1,1,1,1,1,1094.txt
0,0,0,0,0,0,9,7,0,0,27,0,0,0,0,0,0,0,0,11,0,0,30,30,23,29,26,12,29,28,0,0,27,0,28,4,25,4,29,16,9,7,8,8,4,6,7,6,6,7,17,7,0,0,3,17,14,24,0,7,4,11,20,23,3,17,22,5,1096.txt
0,0,0,0,0,0,9,7,0,0,27,0,0,0,0,0,0,0,0,7,2,2,2,2,2,2,2,15,2,2,2,3,3,3,3,1,1,1,1,1,3,3,3,3,7,1,1,1,1,1,17,1,5,1,4,1,1,5,5,0,1,2,1,1,3,29,0,27,1101.txt
0,0,0,0,0,0,9,7,0,0,27,0,0,0,0,0,0,0,0,7,0,0,30,30,23,29,26,15,29,28,0,22,27,18,28,1,1,1,1,1,9,7,8,8,7,1,1,1,1,1,17,1,1,1,1,1,1,1,1,1,1,1,1,1,1,1,1,1,1105.txt
0,0,0,0,0,0,9,7,0,0,27,0,0,0,0,0,0,0,0,7,0,0,30,30,23,29,26,15,29,28,0,22,27,18,28,1,1,1,1,1,9,7,8,8,7,1,1,1,1,1,17,1,1,1,1,1,1,1,1,1,1,1,1,1,1,1,1,1,1106.txt
0,15,0,0,0,0,9,7,0,0,27,0,0,0,0,0,0,0,0,7,6,5,10,10,7,6,17,15,6,30,20,6,17,10,15,30,27,24,27,21,3,4,3,3,7,17,15,18,17,29,17,20,26,18,27,17,13,14,9,3,0,18,0,6,2,18,29,23,1108.txt
0,0,0,0,0,0,9,7,24,0,27,0,0,0,0,0,0,0,0,7,0,0,30,30,23,29,26,15,29,28,0,22,27,18,28,1,1,1,1,1,0,0,0,0,7,1,1,1,1,1,17,1,1,1,1,1,1,1,1,1,1,1,1,1,1,1,1,1,1109.txt
0,0,0,0,0,0,9,7,0,0,27,0,0,0,0,0,0,0,0,7,0,0,30,30,23,29,26,15,29,28,0,22,27,18,28,1,1,1,1,1,0,0,0,0,7,1,1,1,1,1,17,1,1,1,1,1,1,1,1,1,1,1,1,1,1,1,1,1,1114.txt
0,0,0,6,0,0,9,7,8,2,24,4,4,4,4,7,7,6,5,11,4,3,3,3,3,9,4,29,11,19,11,22,7,18,8,0,27,24,27,21,9,7,8,8,16,6,6,6,6,6,13,7,0,15,4,17,9,0,0,16,8,11,8,10,26,7,14,4,1117.txt
0,0,0,0,0,0,9,7,0,0,27,0,0,0,0,0,0,0,0,7,0,0,30,30,23,29,26,15,29,28,0,22,27,18,28,1,1,1,1,1,9,7,8,8,7,1,1,1,1,1,17,1,1,1,1,1,1,1,1,1,1,1,1,1,1,1,1,1,1118.txt
0,0,0,0,0,0,9,7,0,0,27,0,0,0,0,0,0,0,0,7,0,0,30,30,23,29,26,15,29,28,11,22,27,18,28,1,1,1,1,1,9,7,8,8,7,5,5,5,5,5,2,5,4,7,28,8,9,4,4,4,5,12,5,5,3,17,4,9,1121.txt
0,0,0,0,0,0,9,7,0,0,27,0,0,0,0,0,0,0,0,11,0,0,30,30,23,29,26,0,29,28,4,10,27,7,28,27,12,27,3,12,9,7,8,8,0,15,13,15,15,8,6,8,10,0,11,14,9,27,27,13,9,11,14,13,0,7,14,3,1122.txt
0,0,0,0,0,0,9,7,0,0,27,0,0,0,0,0,0,0,0,7,0,0,30,30,23,29,26,15,29,28,0,22,27,18,28,1,1,1,1,1,9,7,8,8,7,1,1,1,1,1,17,1,1,1,1,1,1,1,1,1,1,1,1,1,1,1,1,1,1124.txt
0,0,0,0,0,0,9,7,0,0,27,0,0,0,0,0,0,0,0,7,0,0,30,30,23,29,26,15,29,28,0,22,27,18,28,1,1,1,1,1,9,7,8,8,7,2,2,2,2,2,17,2,1,2,1,2,2,1,1,1,2,1,2,2,1,1,1,1,1126.txt
0,0,0,0,0,0,9,7,0,0,27,0,0,0,0,7,0,0,0,11,0,0,30,30,23,29,26,15,29,28,0,22,27,18,28,13,8,5,7,9,9,7,8,8,7,2,2,2,2,2,13,2,11,2,28,2,2,29,3,16,2,21,2,2,4,4,4,6,1128.txt
0,0,0,0,0,0,9,7,0,0,27,0,0,0,0,0,0,0,0,7,0,0,30,30,23,29,26,15,29,28,0,22,27,18,28,1,1,1,1,1,9,7,8,8,7,1,1,1,1,1,17,1,1,1,1,1,1,1,1,1,1,1,1,1,1,1,1,1,1130.txt
0,0,0,0,0,0,9,7,0,0,27,0,0,0,0,0,0,0,0,7,0,0,30,30,23,29,26,15,29,28,0,22,27,18,28,1,1,1,1,1,9,7,8,8,7,5,5,5,5,5,17,5,4,17,4,23,30,4,4,4,0,11,0,7,3,17,0,0,1135.txt
0,0,0,0,0,0,9,7,0,0,27,0,0,0,0,7,0,0,0,11,0,0,30,30,23,29,26,15,29,28,11,22,27,18,28,29,26,23,26,20,9,7,8,8,7,6,7,6,6,7,17,7,0,23,4,23,30,24,0,3,27,11,6,7,5,17,0,0,1136.txt
0,0,0,0,0,0,9,7,0,0,27,0,0,0,0,0,0,0,0,11,0,0,30,30,23,29,26,12,29,28,11,22,27,18,28,5,29,5,2,27,9,7,8,8,4,6,6,6,6,6,17,7,0,7,13,6,6,0,0,4,5,21,5,5,3,17,22,10,1137.txt
0,0,0,0,0,0,9,7,0,0,27,0,0,0,0,0,0,0,0,7,0,0,30,30,23,29,26,15,29,28,11,22,27,18,28,1,1,1,1,1,9,7,8,8,7,1,1,1,1,1,2,1,4,1,4,1,1,4,4,11,1,11,1,1,3,7,14,3,1139.txt
0,0,0,0,0,0,9,7,0,0,27,0,0,0,0,0,0,0,0,11,6,5,10,10,7,6,25,8,6,17,26,4,23,23,15,29,26,23,26,20,20,17,4,17,0,6,6,6,6,6,6,7,0,15,14,6,6,0,0,3,5,11,5,5,3,11,14,14,1141.txt
0,0,0,0,0,0,9,7,0,0,27,0,0,0,0,0,0,0,0,7,0,0,30,30,23,29,15,15,29,11,0,22,27,18,28,13,16,5,14,16,23,5,6,7,7,5,5,5,5,5,17,5,4,30,27,28,6,4,4,3,24,18,27,6,3,17,7,6,1143.txt
0,0,0,0,0,0,9,7,0,0,27,0,0,0,0,0,0,0,0,7,0,0,30,30,23,29,26,15,29,28,0,22,27,18,28,1,1,1,1,1,9,7,8,8,7,1,1,1,1,1,17,1,1,1,1,1,1,1,1,1,1,1,1,1,1,1,1,1,1147.txt
0,0,0,0,0,0,9,7,0,0,27,0,0,0,0,0,0,0,0,7,0,0,30,30,23,29,26,15,29,28,0,22,27,18,28,1,1,1,1,1,9,7,8,8,7,2,2,2,2,2,17,2,1,2,1,2,2,1,1,1,2,1,2,2,1,1,1,1,1149.txt
0,0,0,0,0,0,9,7,0,0,27,0,0,0,0,0,0,0,0,7,0,0,30,30,23,29,26,15,29,28,0,22,27,18,28,30,27,24,27,21,9,7,8,8,4,10,9,10,10,12,5,9,7,18,8,13,15,9,17,3,10,30,11,12,3,17,14,5,1151.txt
0,0,0,0,0,0,9,7,0,0,27,0,0,0,0,0,0,0,0,7,0,0,30,30,23,29,26,15,29,28,0,22,27,18,28,1,1,1,1,1,0,0,0,0,7,1,1,1,1,1,17,1,1,1,1,1,1,1,1,1,1,1,1,1,1,1,1,1,1152.txt
0,0,0,0,0,0,9,7,0,0,27,0,0,0,0,0,0,0,0,7,0,0,30,30,23,29,26,15,29,28,0,22,27,18,28,1,1,1,1,1,9,7,8,8,7,1,1,1,1,1,17,1,1,1,1,1,1,1,1,1,1,1,1,1,1,1,1,1,1156.txt
0,0,0,0,0,0,9,7,0,0,27,0,0,0,0,0,0,0,0,7,0,0,30,30,23,29,26,15,29,28,0,22,27,18,28,1,1,1,1,1,9,7,8,8,7,15,13,15,15,8,17,9,1,17,1,2,30,1,1,1,10,1,11,12,1,1,1,1,1158.txt
0,0,0,0,0,0,9,7,0,0,27,0,0,0,0,0,0,0,0,7,0,0,30,30,23,29,26,15,29,28,11,22,27,18,28,1,1,1,1,1,9,7,8,8,7,1,1,1,1,1,2,1,1,1,1,1,1,1,1,1,1,1,1,1,1,1,1,1,1161.txt
0,0,0,0,0,0,9,7,0,0,27,0,0,0,0,0,0,0,0,7,0,0,30,30,23,29,26,15,29,28,0,22,27,18,28,1,1,1,1,1,9,7,8,8,7,1,1,1,1,1,17,1,1,1,1,1,1,1,1,1,1,1,1,1,1,1,1,1,1166.txt
0,0,0,0,0,0,9,7,0,0,27,0,0,0,0,0,0,0,0,7,0,0,30,30,23,29,26,15,29,28,11,22,27,18,28,1,1,1,1,1,9,7,8,8,7,5,5,5,5,5,2,5,4,5,28,8,14,4,4,4,5,12,5,5,0,7,14,4,1168.txt
18,2,1,5,27,21,23,1,15,29,3,3,1,3,21,22,6,18,3,5,30,5,10,23,15,12,11,25,8,4,24,23,13,14,10,13,8,9,7,9,20,12,12,30,15,2,2,2,2,2,7,2,15,2,25,2,2,13,13,23,2,20,2,2,11,23,7,20,1169.txt
0,0,0,0,3,0,9,29,29,0,29,4,4,4,4,7,16,11,12,11,10,9,8,8,10,23,26,0,11,28,11,12,7,9,8,12,20,13,23,12,0,0,0,0,0,6,6,6,6,6,13,7,0,15,4,6,22,0,0,0,4,2,4,23,26,14,14,3,1171.txt
0,0,0,0,0,0,9,7,0,0,27,0,0,0,0,0,0,0,0,7,0,0,30,30,23,29,26,15,29,28,11,22,27,18,28,1,1,1,1,1,0,0,0,0,7,1,1,1,1,1,17,1,2,1,2,1,1,27,27,6,1,9,1,1,0,7,14,4,1175.txt
0,0,0,0,0,0,9,7,0,0,27,0,0,0,0,0,0,0,0,7,0,0,30,30,23,29,26,15,29,28,11,22,27,18,28,1,1,1,1,1,9,7,8,8,7,6,6,6,6,6,2,7,0,4,4,23,30,0,0,3,5,11,5,5,3,17,0,0,1177.txt
0,15,0,0,0,0,9,7,0,0,27,0,0,0,0,0,0,0,0,7,2,2,2,2,2,2,2,15,2,2,2,3,3,3,3,1,1,1,1,1,3,3,3,3,7,1,1,1,1,1,17,1,1,1,1,1,1,1,1,1,1,1,1,1,1,1,1,1,1179.txt
0,0,0,0,0,0,9,7,0,0,27,0,0,0,0,0,0,0,0,11,0,0,30,30,23,29,26,15,29,28,0,22,27,18,28,29,26,23,26,20,9,7,8,8,7,2,2,2,2,2,17,2,1,2,1,2,2,1,1,1,2,1,2,2,1,1,1,1,1183.txt
0,0,0,0,0,0,9,7,0,0,27,0,0,0,0,0,0,0,0,7,0,0,30,30,23,29,26,12,29,28,11,22,27,18,28,1,1,1,1,1,9,7,8,8,0,8,6,22,8,6,2,7,0,5,4,10,5,0,0,0,4,11,4,23,3,3,14,4,1184.txt
0,0,0,0,0,0,9,7,0,0,27,0,0,0,0,0,0,0,0,7,0,0,30,30,23,29,26,15,29,28,0,22,25,18,26,8,1,1,8,1,9,7,8,8,23,1,1,1,1,1,17,1,1,1,1,1,1,1,1,1,1,1,1,1,1,1,1,1,1190.txt
0,2,1,0,0,0,9,7,0,0,27,0,0,0,0,0,0,0,0,7,6,5,10,10,7,12,11,8,7,4,27,4,13,23,10,29,26,23,26,20,15,3,26,24,4,6,6,6,6,6,17,7,0,15,14,6,6,0,0,3,5,10,5,5,3,11,14,14,1192.txt
0,0,0,0,0,0,9,7,0,0,27,0,0,0,0,0,0,0,0,7,0,0,30,30,23,29,26,15,29,28,0,22,27,18,28,1,1,1,1,1,9,7,8,8,7,1,1,1,1,1,17,1,1,1,1,1,1,1,1,1,1,1,1,1,1,1,1,1,1194.txt
0,0,0,0,0,0,9,7,0,0,27,0,0,0,0,7,0,0,0,11,0,0,30,30,23,29,26,0,29,28,11,0,27,0,28,29,26,23,26,20,9,7,8,8,4,6,6,6,6,6,13,7,0,0,4,6,6,0,0,7,5,11,5,5,4,17,14,4,1196.txt
0,0,0,0,0,0,9,7,0,0,27,0,0,0,0,0,0,0,0,11,0,0,30,30,23,29,26,12,29,28,11,0,27,0,28,17,29,21,19,7,9,7,8,8,0,6,6,6,6,6,5,7,0,5,3,20,5,0,0,0,5,11,5,5,3,17,5,3,1197.txt
0,0,0,0,0,0,9,7,0,0,27,0,0,0,0,0,0,0,0,11,0,0,30,30,23,29,26,15,29,28,0,22,27,18,28,29,26,23,26,20,9,7,8,8,7,2,2,2,2,2,17,2,11,2,4,2,2,3,3,23,2,11,2,2,3,17,14,4,1199.txt
0,0,0,0,0,0,9,7,0,0,27,0,0,0,0,0,0,0,0,11,0,0,30,30,23,29,15,15,29,11,0,22,27,18,28,13,23,5,6,9,8,6,7,7,7,6,7,6,6,7,17,0,0,30,28,2,6,24,0,3,0,20,0,6,3,17,7,5,1201.txt
0,0,0,0,0,0,9,7,0,0,27,0,0,0,0,0,0,0,0,7,0,0,30,30,23,29,26,15,29,28,6,22,27,18,28,1,1,1,1,1,9,7,8,8,7,15,13,15,15,8,17,17,9,18,25,29,15,27,27,24,30,11,19,18,3,17,4,9,1203.txt
0,0,0,0,0,0,9,7,0,0,27,0,0,0,0,0,0,0,0,11,0,0,30,30,23,29,26,15,29,28,0,22,27,18,28,29,26,23,26,20,9,7,8,8,10,2,2,2,2,2,17,2,3,2,4,2,2,3,3,13,2,11,2,2,3,7,14,6,1205.txt
0,2,0,0,0,0,3,3,2,27,27,25,0,23,0,0,0,0,0,25,2,2,2,2,6,2,17,4,13,14,20,21,15,14,12,20,8,5,7,8,3,12,3,5,7,2,2,2,2,2,27,2,29,2,5,2,2,12,12,3,2,25,2,2,18,8,11,25,1207.txt
0,0,0,0,0,0,9,7,0,0,27,0,0,0,0,0,0,0,0,7,0,0,30,30,23,29,26,15,29,28,0,22,27,18,28,1,1,1,1,1,9,7,8,8,7,1,1,1,1,1,17,1,1,1,1,1,1,1,1,1,1,1,1,1,1,1,1,1,1211.txt
0,0,0,0,0,0,9,7,0,0,27,0,0,0,0,0,0,0,0,7,0,0,30,30,23,29,26,15,29,28,0,22,27,18,28,1,1,1,1,1,10,8,9,9,7,1,1,1,1,1,17,1,1,1,1,1,1,1,1,1,1,1,1,1,1,1,1,1,1214.txt
0,0,0,0,0,0,9,7,0,0,27,0,0,0,0,0,0,0,0,7,0,0,30,30,23,29,26,15,29,28,0,22,27,18,28,1,1,1,1,1,0,0,0,0,7,1,1,1,1,1,17,1,1,1,1,1,1,1,1,1,1,1,1,1,1,1,1,1,1216.txt
0,0,0,0,0,0,9,7,0,0,27,0,0,0,0,7,0,0,0,11,0,0,30,30,23,29,26,0,29,28,11,22,27,18,28,29,26,23,26,20,9,7,8,8,0,6,6,6,6,6,6,7,0,6,4,23,30,0,0,4,5,11,5,5,4,17,0,0,1217.txt
0,0,0,0,0,0,9,7,0,0,27,0,0,0,0,0,0,0,0,7,0,0,30,30,23,29,26,15,29,28,0,22,27,18,28,1,1,1,1,1,9,7,8,8,7,1,1,1,1,1,17,1,1,1,1,1,1,1,1,1,1,1,1,1,1,1,1,1,1219.txt
0,0,0,0,0,0,9,7,0,27,27,25,0,23,0,0,0,0,0,7,0,0,30,30,23,29,8,15,29,13,11,22,27,18,28,1,1,1,1,1,9,7,8,8,10,5,5,5,5,5,17,5,4,0,4,23,30,4,4,3,5,12,5,5,3,17,0,0,1221.txt
0,2,3,0,0,0,9,7,0,0,27,0,0,0,0,7,0,0,0,11,29,5,10,22,7,17,25,8,19,17,20,30,19,23,19,13,17,5,2,16,20,18,4,28,21,18,23,18,25,29,17,20,13,15,14,23,30,14,29,3,5,6,5,5,17,11,17,14,1225.txt
0,0,0,0,0,0,9,7,0,0,27,0,0,0,0,0,0,0,0,11,0,0,30,30,23,29,26,15,29,28,0,22,27,18,28,29,26,23,26,20,9,7,8,8,7,2,2,2,2,2,17,2,1,2,1,2,2,1,1,1,2,1,2,2,1,1,1,1,1228.txt
0,0,0,0,0,0,9,7,0,0,27,0,0,0,0,0,0,0,0,7,0,0,30,30,23,29,26,15,29,28,11,22,27,18,28,29,26,23,26,20,9,7,8,8,4,6,6,6,6,6,17,7,0,3,4,3,6,0,0,3,8,11,8,10,3,17,14,4,1230.txt
0,0,0,0,0,0,9,7,0,0,27,0,0,0,0,0,0,0,0,7,0,0,30,30,23,29,26,15,29,28,0,22,27,18,28,1,1,1,1,1,9,7,8,8,7,2,2,2,2,2,17,2,1,2,1,2,2,1,1,1,2,1,2,2,1,1,1,1,1234.txt
0,0,0,0,0,0,9,7,0,0,27,0,0,0,0,0,0,0,0,7,0,0,30,30,23,29,26,15,29,28,0,22,27,18,28,1,1,1,1,1,0,0,0,0,7,1,1,1,1,1,17,1,1,1,1,1,1,1,1,1,1,1,1,1,1,1,1,1,1237.txt
0,2,0,0,0,0,9,7,0,0,27,0,0,0,0,0,0,0,0,7,2,2,2,2,2,2,2,15,2,2,2,3,3,3,3,1,1,1,1,1,3,3,3,3,7,1,1,1,1,1,17,1,1,1,1,1,1,1,1,1,1,1,1,1,1,1,1,1,1239.txt
12,2,1,5,4,26,3,3,5,29,3,3,9,3,21,18,6,15,3,5,6,5,10,10,7,6,21,21,6,22,22,6,20,19,15,29,26,23,26,20,6,14,24,3,27,10,9,10,10,13,13,9,7,15,8,6,6,9,18,19,10,30,11,12,2,21,20,12,1241.txt
0,0,0,0,0,0,9,7,0,0,27,0,0,0,0,0,0,0,0,7,0,0,30,30,23,29,26,15,29,28,11,22,27,18,28,1,1,1,1,1,9,7,8,8,7,5,5,5,5,5,2,5,4,15,3,6,6,4,4,0,5,0,5,5,3,17,5,3,1243.txt
12,2,1,0,0,0,22,18,13,0,27,0,0,0,0,0,0,0,0,7,6,5,10,10,7,12,25,9,7,4,26,4,23,23,10,5,29,5,2,10,3,3,3,5,0,6,6,6,6,6,6,7,0,0,6,23,30,0,0,3,5,8,5,5,13,11,16,2,1245.txt
0,0,0,0,0,0,9,7,0,0,27,0,0,0,0,0,0,0,0,7,0,0,30,30,23,29,26,15,29,28,0,22,27,18,28,1,1,1,1,1,9,7,8,8,7,1,1,1,1,1,17,1,1,1,1,1,1,1,1,1,1,1,1,1,1,1,1,1,1249.txt
0,0,0,0,0,0,9,7,0,0,27,0,0,0,0,0,0,0,0,7,0,0,30,30,23,29,26,15,29,28,0,22,27,18,28,1,1,1,1,1,9,7,8,8,7,1,1,1,1,1,17,1,1,1,1,1,1,1,1,1,1,1,1,1,1,1,1,1,1251.txt
0,30,0,6,0,0,9,7,8,2,24,4,4,4,4,0,7,6,5,11,6,5,10,10,14,6,10,15,6,8,20,6,24,10,15,29,26,23,26,20,3,4,3,3,7,18,15,25,17,4,25,20,26,20,13,26,13,14,9,11,6,11,26,25,2,27,8,8,1254.txt
0,0,0,3,0,0,9,7,0,2,24,4,4,4,4,7,0,0,0,11,4,3,3,3,3,29,4,0,29,3,11,10,27,7,28,4,4,4,4,7,9,7,8,8,0,6,6,6,6,6,10,7,0,11,3,23,30,0,0,4,5,0,5,5,0,7,0,0,1255.txt
0,0,12,0,22,0,4,9,3,0,11,15,21,16,27,7,0,0,0,11,0,0,30,30,23,29,26,5,29,28,15,10,27,7,28,2,2,2,2,4,9,7,8,8,10,17,16,19,19,29,6,13,26,4,6,9,8,14,10,3,0,28,0,8,10,17,22,10,1267.txt
0,2,1,0,0,0,9,7,0,0,27,0,0,0,0,0,0,0,0,11,6,5,10,10,7,20,25,12,15,17,26,4,23,21,6,2,2,2,6,10,24,17,4,17,19,19,15,18,17,29,17,12,13,7,3,23,30,14,9,3,4,0,20,23,3,13,0,17,1271.txt
2,15,3,29,4,14,24,12,5,10,14,30,16,20,15,29,22,21,15,16,24,24,27,27,1,28,16,26,1,16,21,8,11,23,22,18,21,19,6,16,25,16,21,28,19,18,16,18,19,4,21,20,11,23,14,24,21,14,10,3,5,14,5,5,12,11,18,14,1274.txt
0,0,5,0,0,0,4,4,3,0,2,2,21,2,27,7,0,0,0,11,0,0,30,30,23,29,26,12,29,28,11,0,27,0,28,2,2,2,19,2,9,7,8,8,10,18,16,19,19,4,17,13,13,13,13,23,30,14,10,13,29,11,20,23,3,17,0,0,1276.txt
0,2,3,0,0,0,9,7,0,0,27,0,0,0,0,0,0,0,0,7,6,5,10,10,7,6,17,15,6,17,20,6,19,23,15,1,1,1,1,1,3,3,3,3,7,5,5,5,5,5,17,5,4,15,28,6,6,4,4,3,25,12,28,7,2,27,17,30,1278.txt
0,0,0,0,0,0,9,7,0,0,27,0,0,0,0,0,0,0,0,7,0,0,30,30,23,29,26,15,29,28,0,22,27,18,28,1,1,1,1,1,9,7,8,8,7,1,1,1,1,1,17,1,1,1,1,1,1,1,1,1,1,1,1,1,1,1,1,1,1280.txt
12,2,1,15,2,12,22,18,15,8,6,29,7,30,17,18,3,14,1,3,6,5,10,10,7,12,11,4,7,4,27,4,13,16,10,1,1,1,1,1,3,3,3,3,7,8,6,22,8,6,2,7,0,15,4,23,30,0,0,0,4,11,20,23,13,21,24,12,1283.txt
7,15,3,29,4,14,2,2,5,29,14,30,1,20,21,19,24,17,29,17,24,24,1,28,1,28,21,17,18,16,22,26,16,28,23,17,22,19,6,26,20,26,16,27,29,20,16,20,19,29,25,11,29,25,27,29,11,14,10,28,27,19,25,25,11,27,7,30,1285.txt
0,0,0,0,0,0,9,7,0,0,27,0,0,0,0,0,0,0,0,7,0,0,30,30,23,29,26,15,29,28,0,22,27,18,28,1,1,1,1,1,9,7,8,8,7,6,6,6,6,6,2,7,0,0,28,23,30,0,0,3,5,11,5,5,3,17,0,0,1287.txt
0,0,5,0,22,0,4,9,3,0,19,28,21,2,27,7,0,0,0,11,0,0,30,30,23,29,26,5,29,28,15,12,27,9,28,29,26,23,26,20,9,7,8,8,4,6,7,6,6,7,5,14,22,27,4,17,28,26,0,28,27,11,25,25,5,3,27,4,1288.txt
26,2,3,29,4,21,24,11,5,10,14,20,16,20,17,18,24,12,18,17,6,5,10,10,7,6,16,27,6,17,20,26,19,10,15,2,2,2,2,16,20,17,26,28,21,18,4,17,4,29,14,11,12,15,14,6,6,14,3,3,5,6,5,5,2,11,17,14,1290.txt
12,2,1,15,4,24,22,18,15,8,6,29,7,30,17,18,24,12,1,19,6,5,10,10,7,12,30,21,7,4,27,4,13,20,10,1,6,6,1,5,17,3,4,5,27,10,9,10,10,12,3,9,7,15,8,6,6,9,22,3,10,25,11,12,13,12,20,28,1292.txt
0,0,0,0,0,0,9,7,0,0,27,0,0,0,0,0,0,0,0,7,0,0,30,30,23,29,26,15,29,28,0,22,27,18,28,1,1,1,1,1,9,7,8,8,7,1,1,1,1,1,17,1,1,1,1,1,1,1,1,1,1,1,1,1,1,1,1,1,1295.txt
0,2,0,0,0,0,9,7,0,0,27,0,0,0,0,0,0,0,0,11,6,5,10,10,7,6,25,12,6,17,26,4,23,11,15,0,27,24,27,21,28,16,14,17,0,8,6,22,8,6,1,7,0,0,4,24,9,0,0,3,21,11,20,23,3,13,8,17,1297.txt
0,0,0,0,0,0,9,7,0,0,27,0,0,0,0,0,0,0,0,7,0,0,30,30,23,29,26,12,29,28,0,22,27,18,28,1,1,1,1,1,9,7,8,8,4,10,9,10,10,13,17,9,7,30,8,7,6,9,16,0,10,11,11,12,3,17,7,3,1300.txt
26,2,1,0,0,0,22,18,15,0,27,0,0,0,0,0,0,0,0,11,12,13,17,21,18,12,3,25,7,4,17,7,13,5,10,0,0,0,0,0,22,18,24,22,16,8,6,22,8,6,4,7,0,15,4,6,6,0,24,8,4,11,4,23,13,11,2,14,1302.txt
0,0,0,0,0,0,9,7,0,0,27,0,0,0,0,0,0,0,0,7,0,0,30,30,23,29,26,15,29,28,0,22,27,18,28,1,1,1,1,1,9,7,8,8,7,1,1,1,1,1,17,1,1,1,1,1,1,1,1,1,1,1,1,1,1,1,1,1,1303.txt
0,0,0,0,0,0,9,7,0,0,4,0,0,0,0,7,0,0,0,11,0,0,30,30,23,29,26,12,29,28,11,22,27,18,28,29,26,23,26,20,9,7,8,8,0,6,6,6,6,6,1,7,0,0,4,23,30,0,0,3,5,11,5,5,5,17,0,0,1305.txt
0,0,0,0,0,0,9,7,0,0,27,0,0,0,0,0,0,0,0,7,0,0,30,30,23,29,26,15,29,28,11,22,27,18,28,1,1,1,1,1,9,7,8,8,4,0,0,0,0,0,17,7,0,11,4,25,9,0,0,8,27,11,25,7,3,17,14,4,1307.txt
0,0,0,0,0,0,9,7,0,0,27,0,0,0,0,0,0,0,0,11,0,0,30,30,23,29,26,12,29,28,11,22,27,18,28,0,27,24,27,21,9,7,8,8,0,6,6,6,6,6,4,7,0,15,4,6,6,0,0,4,5,11,5,5,3,17,8,10,1309.txt
0,0,0,0,0,0,9,7,0,0,27,0,0,0,0,0,0,0,0,7,0,0,30,30,23,29,26,15,29,28,0,22,27,18,28,1,1,1,1,1,9,7,8,8,7,1,1,1,1,1,17,1,1,1,1,1,1,1,1,1,1,1,1,1,1,1,1,1,1311.txt
0,0,0,0,0,0,9,7,0,0,27,0,0,0,0,0,0,0,0,7,0,0,30,30,23,29,26,15,29,28,0,22,27,18,28,1,1,1,1,1,0,0,0,0,7,1,1,1,1,1,17,1,1,1,1,1,1,1,1,1,1,1,1,1,1,1,1,1,1314.txt
0,0,0,0,0,0,9,7,0,0,27,0,0,0,0,0,0,0,0,7,0,0,30,30,23,29,26,15,29,28,0,22,27,18,28,1,1,1,1,1,9,7,8,8,7,5,5,5,5,5,17,5,1,21,1,24,13,1,1,1,27,1,12,7,1,1,1,1,1315.txt
0,0,0,0,0,0,9,7,0,0,27,0,0,0,0,0,0,0,0,7,0,0,30,30,23,29,26,15,29,28,0,22,27,18,28,1,1,1,1,1,9,7,8,8,7,1,1,1,1,1,17,1,0,1,4,1,1,0,0,4,1,11,1,1,3,7,14,4,1317.txt
0,0,0,0,0,0,9,7,0,0,27,0,0,0,0,0,0,0,0,7,0,0,30,30,23,29,26,15,29,28,0,22,27,18,28,1,1,1,1,1,9,7,8,8,7,6,6,6,6,6,17,7,0,0,4,8,9,0,0,4,5,11,5,5,3,17,14,5,1318.txt
0,0,0,0,0,0,9,7,0,0,27,0,0,0,0,0,0,0,0,7,0,0,30,30,23,29,26,15,29,28,0,22,27,18,28,1,1,1,1,1,9,7,8,8,7,1,1,1,1,1,17,1,1,1,1,1,1,1,1,1,1,1,1,1,1,1,1,1,1320.txt
0,0,0,0,0,0,9,7,0,0,27,0,0,0,0,0,0,0,0,7,0,0,30,30,23,29,26,15,29,28,0,22,27,18,28,1,1,1,1,1,9,7,8,8,7,1,1,1,1,1,17,1,1,1,1,1,1,1,1,1,1,1,1,1,1,1,1,1,1323.txt
0,0,0,0,0,0,9,7,0,0,27,0,0,0,0,0,0,0,0,7,0,0,30,30,23,29,26,15,29,28,11,22,27,18,28,1,1,1,1,1,9,7,8,8,7,6,6,6,6,6,2,7,0,17,28,6,6,0,0,4,5,12,5,5,3,17,4,0,1325.txt
0,0,0,0,0,0,9,7,0,0,27,0,0,0,0,0,0,0,0,7,0,0,30,30,23,29,26,15,29,28,11,22,27,18,28,1,1,1,1,1,9,7,8,8,7,1,1,1,1,1,17,1,4,1,4,1,1,4,4,3,1,12,1,1,3,17,14,4,1327.txt
0,0,0,0,0,0,9,7,0,0,27,0,0,0,0,0,0,0,0,11,0,0,30,30,23,29,26,12,29,28,11,22,27,18,28,29,26,23,26,20,9,7,8,8,4,6,6,6,6,6,13,7,0,15,4,6,6,0,0,16,5,11,5,5,3,17,14,10,1329.txt
0,0,0,0,0,0,9,7,0,0,27,0,0,0,0,0,0,0,0,7,0,0,30,30,23,29,26,15,29,28,0,22,27,18,28,1,1,1,1,1,9,7,8,8,7,1,1,1,1,1,17,1,1,1,1,1,1,1,1,1,1,1,1,1,1,1,1,1,1331.txt
0,0,0,0,0,0,4,4,3,0,2,2,21,2,27,7,0,0,0,11,0,0,30,30,23,29,26,12,29,28,15,22,27,18,28,9,15,11,13,10,9,7,8,8,10,16,4,19,4,19,17,13,13,17,28,23,30,18,3,6,27,21,25,25,4,3,0,0,1332.txt
0,0,0,0,0,0,9,7,0,0,27,0,0,0,0,0,0,0,0,7,0,0,30,30,23,29,26,15,29,28,0,22,27,18,28,1,1,1,1,1,9,7,8,8,7,1,1,1,1,1,17,1,1,1,1,1,1,1,1,1,1,1,1,1,1,1,1,1,1335.txt
0,2,3,15,4,12,25,11,1,23,6,29,19,30,26,18,24,12,18,19,6,5,10,10,1,1,25,1,1,1,26,4,23,5,15,4,4,4,4,10,22,16,11,17,0,6,6,6,6,6,6,7,0,11,3,17,14,0,0,3,5,11,5,5,3,30,8,13,1337.txt
0,0,0,0,0,0,9,7,0,28,27,0,0,0,0,0,0,0,0,7,0,0,30,30,23,29,26,15,29,28,0,22,27,18,28,1,1,1,1,1,9,7,8,8,7,5,5,5,5,5,17,5,4,15,5,17,13,4,4,3,0,12,0,6,3,17,22,5,1339.txt
0,0,0,0,0,0,9,7,0,0,27,0,0,0,0,0,0,0,0,7,0,0,30,30,23,29,26,15,29,28,11,22,27,18,28,1,1,1,1,1,9,7,8,8,7,1,1,1,1,1,17,1,0,1,5,1,1,24,0,13,1,11,1,1,0,7,0,0,1341.txt
0,0,0,0,0,0,9,7,0,0,27,0,0,0,0,0,0,0,0,7,0,0,30,30,23,29,26,15,29,28,0,22,27,18,28,1,1,1,1,1,9,7,8,8,7,6,6,6,6,6,17,7,0,17,28,23,30,0,0,3,0,11,0,8,3,17,0,0,1344.txt
0,0,0,0,0,0,9,7,0,0,27,0,0,0,0,0,0,0,0,7,0,0,30,30,23,29,26,15,29,28,0,22,27,18,28,1,1,1,1,1,9,7,8,8,7,1,1,1,1,1,17,1,1,1,1,1,1,1,1,1,1,1,1,1,1,1,1,1,1346.txt
0,0,0,0,0,0,9,7,0,0,27,0,0,0,0,0,0,0,0,7,0,0,30,30,23,29,26,15,29,28,0,22,27,18,28,1,1,1,1,1,9,7,8,8,7,1,1,1,1,1,17,1,0,1,4,1,1,0,0,4,1,11,1,1,3,17,0,0,1348.txt
18,15,3,15,27,24,20,21,18,25,14,12,28,20,12,21,17,16,29,20,22,18,23,14,20,19,30,17,25,26,30,28,17,19,24,21,23,20,14,27,18,22,22,27,21,26,26,29,30,22,25,28,30,25,19,16,26,17,17,22,28,23,15,18,28,24,23,25,1351.txt
0,0,0,0,0,0,9,7,0,0,27,0,0,0,0,0,0,0,0,7,0,0,30,30,23,29,26,15,29,28,0,22,27,18,28,1,1,1,1,1,9,7,8,8,7,1,1,1,1,1,17,1,0,1,4,1,1,0,0,13,1,12,1,1,3,17,0,0,1352.txt
0,0,0,0,0,0,9,7,0,0,27,0,0,0,0,0,0,0,0,11,0,0,30,30,23,29,26,15,29,28,0,22,27,18,28,0,27,24,27,21,9,7,8,8,7,2,2,2,2,2,17,2,1,2,1,2,2,1,1,1,2,1,2,2,1,1,1,1,1354.txt
0,0,0,0,0,0,9,7,0,0,27,0,0,0,0,0,0,0,0,7,0,0,30,30,23,29,26,15,29,28,0,22,27,18,28,29,26,23,26,20,9,7,8,8,7,2,2,2,2,2,17,2,4,2,4,2,2,4,4,3,2,11,2,2,3,17,14,4,1356.txt
0,0,0,0,0,0,9,7,0,0,27,0,0,0,0,0,0,0,0,7,0,0,30,30,23,29,26,15,29,28,0,22,27,18,28,1,1,1,1,1,9,7,8,8,7,1,1,1,1,1,17,1,1,1,1,1,1,1,1,1,1,1,1,1,1,1,1,1,1358.txt
0,0,0,0,0,0,9,7,0,0,27,0,0,0,0,0,0,0,0,7,0,0,30,30,23,29,26,15,29,28,0,22,27,18,28,29,26,23,26,20,9,7,8,8,7,2,2,2,2,2,17,2,1,2,1,2,2,1,1,1,2,1,2,2,1,1,1,1,1360.txt
0,0,0,0,0,0,9,7,0,0,27,0,0,0,0,7,0,0,0,11,0,0,30,30,23,29,26,22,29,28,11,0,27,0,28,29,26,23,26,20,9,7,8,8,4,6,6,6,6,6,6,7,0,0,4,23,30,0,0,3,5,11,5,5,11,17,0,0,1362.txt
0,0,0,0,0,0,9,7,0,0,27,0,0,0,0,0,0,0,0,7,0,0,30,30,23,29,26,15,29,28,0,22,27,18,28,1,1,1,1,1,9,7,8,8,7,5,5,5,5,5,17,5,4,17,28,23,30,4,4,3,25,12,28,7,3,17,0,0,1364.txt
0,0,0,0,0,0,9,7,0,0,27,0,0,0,0,0,0,0,0,7,0,0,30,30,23,29,26,15,29,28,11,22,27,18,28,1,1,1,1,1,9,7,8,8,7,1,1,1,1,1,17,1,1,1,1,1,1,1,1,1,1,1,1,1,1,1,1,1,1367.txt
0,15,0,0,0,0,9,7,0,0,27,0,0,0,0,7,0,0,0,11,24,24,1,1,1,1,11,0,1,1,27,4,19,28,1,29,26,23,26,20,22,1,1,22,4,6,14,6,6,16,17,7,0,11,4,17,14,24,0,3,5,11,5,5,10,11,14,14,1368.txt
0,0,0,0,0,0,9,7,0,0,27,0,0,0,0,0,0,0,0,7,0,0,30,30,23,29,26,15,29,28,11,22,27,18,28,18,29,19,6,26,9,7,8,8,21,18,4,18,4,18,17,20,11,15,28,17,13,29,3,16,0,11,0,6,3,17,4,10,1371.txt
0,0,0,0,0,0,9,7,0,0,27,0,0,0,0,0,0,0,0,7,0,0,30,30,23,29,15,15,29,11,0,22,27,18,28,1,1,1,1,1,7,5,6,7,10,5,5,5,5,5,17,5,4,15,28,6,6,4,4,3,5,12,5,5,3,17,22,5,1372.txt
0,0,0,0,0,0,9,7,0,0,27,0,0,0,0,7,0,0,0,11,0,0,30,30,23,29,26,12,29,28,11,22,27,18,28,29,26,23,26,20,9,7,8,8,10,4,15,19,17,29,17,13,3,0,4,23,30,3,9,3,5,11,5,5,5,17,0,0,1375.txt
0,0,0,0,0,0,9,7,0,0,27,0,0,0,0,0,0,0,0,7,0,0,30,30,23,29,26,15,29,28,0,22,27,18,28,1,1,1,1,1,9,7,8,8,7,5,5,5,5,5,17,5,4,0,4,23,30,4,4,3,5,11,5,5,3,17,0,0,1377.txt
0,0,0,0,0,0,9,7,0,0,27,0,0,0,0,0,0,0,0,7,0,0,30,30,23,29,26,15,29,28,11,22,27,18,28,1,1,1,1,1,9,7,8,8,7,1,1,1,1,1,17,1,4,1,28,1,1,4,4,3,1,3,1,1,12,17,14,4,1379.txt
0,0,0,3,0,0,9,7,8,2,24,4,4,4,4,7,7,6,5,11,24,24,1,1,1,28,25,29,1,12,26,1,23,29,14,13,29,9,2,10,4,21,19,17,3,6,6,6,6,6,6,7,0,15,6,6,8,0,0,6,5,3,5,5,4,11,4,14,1380.txt
0,0,0,0,0,0,9,7,0,0,27,0,0,0,0,0,0,0,0,11,0,0,30,30,23,29,15,12,29,11,0,22,27,18,28,5,15,9,2,10,7,5,6,7,10,19,15,19,17,19,6,13,11,17,28,30,6,14,9,3,25,11,28,7,3,17,8,6,1383.txt
0,0,0,0,0,0,9,7,0,0,27,0,0,0,0,7,0,0,0,7,0,0,30,30,23,29,26,0,29,28,11,12,27,9,28,29,26,23,26,20,9,7,8,8,4,6,6,6,6,6,4,7,0,15,4,6,6,0,0,0,5,11,5,5,4,17,14,3,1389.txt
0,0,0,0,0,0,9,7,0,0,27,0,0,0,0,0,0,0,0,7,0,0,30,30,23,29,26,12,29,28,11,22,27,18,28,1,1,1,1,1,9,7,8,8,6,6,6,6,6,6,17,7,0,15,4,6,6,0,0,8,8,11,8,10,13,17,17,4,1390.txt
0,0,0,0,0,0,9,7,0,0,27,0,0,0,0,0,0,0,0,7,0,0,30,30,23,29,26,15,29,28,11,22,27,18,28,1,1,1,1,1,9,7,8,8,0,6,6,6,6,6,17,7,0,7,4,6,6,0,0,3,5,11,5,5,3,17,27,9,1392.txt
0,0,0,0,0,0,9,7,0,0,27,0,0,0,0,0,0,0,0,7,0,0,30,30,23,29,26,15,29,28,0,22,27,18,28,1,1,1,1,1,9,7,8,8,7,1,1,1,1,1,17,1,1,1,1,1,1,1,1,1,1,1,1,1,1,1,1,1,1395.txt
0,0,0,0,0,0,9,7,0,0,27,0,0,0,0,0,0,0,0,11,0,0,30,30,23,29,26,15,29,28,0,22,27,18,28,0,27,24,27,21,9,7,8,8,7,2,2,2,2,2,17,2,0,2,4,2,2,24,0,4,2,11,2,2,3,17,0,0,1396.txt
0,0,0,0,0,0,9,7,0,0,27,0,0,0,0,14,7,6,5,7,0,0,30,30,23,29,26,15,29,28,0,22,27,18,28,1,1,1,1,1,9,7,8,8,7,5,5,5,5,5,2,5,4,5,4,29,11,4,4,3,8,0,8,10,5,17,14,5,1398.txt
0,0,0,0,0,0,9,7,0,0,27,0,0,0,0,0,0,0,0,7,0,0,30,30,23,29,26,15,29,28,0,22,27,18,28,1,1,1,1,1,9,7,8,8,7,1,1,1,1,1,17,1,1,1,1,1,1,1,1,1,1,1,1,1,1,1,1,1,1400.txt
0,0,0,0,0,0,9,7,0,0,24,4,4,4,4,0,0,0,0,7,0,0,30,30,23,29,26,12,29,28,15,22,27,18,28,1,1,1,1,1,9,7,8,8,10,5,5,5,5,5,17,5,4,5,4,16,15,4,4,3,8,12,8,10,3,17,14,9,1402.txt
0,0,0,0,0,0,9,7,0,0,27,0,0,0,0,0,0,0,0,11,0,0,30,30,23,29,26,12,29,28,11,22,27,18,28,5,29,5,13,16,9,7,8,8,0,6,6,6,6,6,17,7,0,15,14,6,6,0,0,3,5,8,5,5,3,17,4,3,1405.txt
0,0,0,0,0,0,9,7,0,0,27,0,0,0,0,0,0,0,0,7,0,0,30,30,23,29,26,15,29,28,11,22,27,18,28,1,1,1,1,1,9,7,8,8,7,1,1,1,1,1,17,1,0,1,4,1,1,0,0,0,1,11,1,1,3,17,0,0,1407.txt
0,0,0,0,0,0,9,7,0,0,27,0,0,0,0,0,0,0,0,7,0,0,30,30,23,29,26,15,29,28,0,22,27,18,28,1,1,1,1,1,9,7,8,8,7,6,6,6,6,6,17,7,0,11,4,24,9,0,0,24,5,11,5,5,3,17,14,5,1409.txt
28,15,3,26,0,0,24,8,5,6,27,0,20,0,8,5,5,4,4,25,6,5,10,10,15,6,17,25,6,30,20,6,20,10,15,14,18,19,6,16,20,13,20,30,27,17,18,25,21,20,27,20,11,20,26,29,17,19,12,3,8,18,8,10,2,21,20,12,1412.txt
0,0,0,0,0,0,9,7,0,0,27,0,0,0,0,0,0,0,0,7,0,0,30,30,23,29,26,15,29,28,0,22,27,18,28,1,1,1,1,1,9,7,8,8,7,1,1,1,1,1,17,1,1,1,1,1,1,1,1,1,1,1,1,1,1,1,1,1,1416.txt
0,0,0,0,0,0,9,7,0,0,27,0,0,0,0,0,0,0,0,7,0,0,30,30,23,29,26,15,29,28,0,22,27,18,28,1,1,1,1,1,9,7,8,8,7,5,5,5,5,5,17,5,4,17,4,6,6,4,4,3,25,11,28,7,3,17,14,0,1418.txt
0,0,0,0,0,0,9,7,24,0,27,0,0,0,0,0,0,0,0,7,0,0,30,30,23,29,26,15,29,28,0,22,27,18,28,1,1,1,1,1,9,7,8,8,7,1,1,1,1,1,17,1,1,1,1,1,1,1,1,1,1,1,1,1,1,1,1,1,1421.txt
0,0,0,0,0,0,9,7,0,0,27,0,0,0,0,7,0,0,0,7,0,0,30,30,23,29,26,15,29,28,15,22,27,18,28,29,26,23,26,20,9,7,8,8,10,18,4,19,4,19,14,13,13,30,28,23,30,14,3,6,25,11,28,7,4,17,0,0,1422.txt
0,0,0,0,0,0,9,7,0,0,27,0,0,0,0,0,0,0,0,7,0,0,30,30,23,29,26,15,29,28,0,22,27,18,28,1,1,1,1,1,9,7,8,8,7,1,1,1,1,1,17,1,1,1,1,1,1,1,1,1,1,1,1,1,1,1,1,1,1425.txt
0,0,0,0,0,0,9,7,0,0,27,0,0,0,0,0,0,0,0,7,0,0,30,30,23,29,26,15,29,28,11,22,27,18,28,1,1,1,1,1,9,7,8,8,10,5,5,5,5,5,17,5,4,0,4,24,14,4,4,4,5,11,5,5,3,17,14,0,1427.txt
0,0,0,0,0,0,9,7,0,0,27,0,0,0,0,0,0,0,0,7,0,0,30,30,23,29,26,15,29,28,11,22,27,18,28,1,1,1,1,1,9,7,8,8,0,6,6,6,6,6,17,7,0,0,4,23,30,0,0,0,5,11,5,5,3,17,0,0,1429.txt
0,0,0,6,0,0,9,7,0,11,24,9,10,29,7,7,0,0,0,11,0,0,30,30,23,29,26,12,29,28,11,12,27,9,28,17,23,20,14,27,9,7,8,8,4,6,6,6,6,6,5,7,0,11,14,29,15,0,0,3,8,11,8,10,10,17,7,9,1431.txt
0,0,0,0,0,0,9,7,0,0,27,0,0,0,0,0,0,0,0,7,0,0,30,30,23,29,26,12,29,28,11,22,27,18,28,0,27,24,27,21,9,7,8,8,0,6,6,6,6,6,4,7,0,0,4,23,30,0,0,8,5,11,5,5,3,17,0,0,1433.txt
0,0,0,0,0,0,9,7,0,0,27,0,0,0,0,0,0,0,0,11,0,0,30,30,23,29,26,15,29,28,15,22,27,18,28,0,27,24,27,21,9,7,8,8,7,2,2,2,2,2,17,2,11,2,4,2,2,3,9,3,2,11,2,2,3,17,14,4,1434.txt
0,0,0,0,0,0,9,7,0,0,27,0,0,0,0,0,0,0,0,11,0,0,30,30,23,29,26,15,29,28,15,22,27,18,28,0,27,24,27,21,9,7,8,8,7,2,2,2,2,2,17,2,11,2,4,2,2,3,9,3,2,11,2,2,3,17,14,4,1436.txt
0,0,5,0,22,0,9,7,0,0,27,0,0,0,0,0,0,0,0,11,0,0,30,30,23,29,26,0,29,28,0,0,27,0,28,29,26,23,26,20,9,7,8,8,4,2,2,2,2,2,17,2,0,2,4,2,2,24,24,13,2,11,2,2,3,17,14,4,1439.txt
0,0,0,0,0,0,9,7,0,0,27,0,0,0,0,0,0,0,0,7,0,0,30,30,23,29,26,15,29,28,0,22,27,18,28,1,1,1,1,1,9,7,8,8,7,5,5,5,5,5,17,5,4,17,4,14,13,4,4,3,27,11,12,7,3,17,14,5,1441.txt
0,0,0,0,0,0,9,7,0,0,27,0,0,0,0,0,0,0,0,7,0,0,30,30,23,29,26,15,29,28,11,22,27,18,28,1,1,1,1,1,9,7,8,8,0,6,6,6,6,6,17,7,0,5,4,23,30,0,0,13,5,11,5,5,3,17,0,0,1442.txt
0,0,0,0,0,0,9,7,0,0,27,0,0,0,0,7,0,0,0,11,0,0,30,30,23,29,26,12,29,28,11,10,27,7,28,4,4,4,4,16,9,7,8,8,0,6,6,6,6,6,5,7,0,0,3,10,14,0,0,4,5,0,5,5,10,17,22,0,1444.txt
0,0,0,0,0,0,9,7,0,0,27,0,0,0,0,0,0,0,0,7,0,0,30,30,23,29,15,15,29,11,0,22,27,18,28,1,1,1,1,1,7,5,6,7,7,5,5,5,5,5,17,5,4,0,4,6,6,4,4,3,25,11,28,7,3,17,8,5,1446.txt
0,0,0,0,0,0,9,7,0,0,27,0,0,0,0,0,0,0,0,7,0,0,30,30,23,29,26,15,29,28,0,22,27,18,28,29,26,23,26,20,9,7,8,8,10,19,15,19,17,29,17,13,13,4,28,23,30,14,9,3,25,11,28,7,3,17,0,0,1448.txt
0,0,0,0,0,0,9,7,0,0,27,0,0,0,0,0,0,0,0,7,0,0,30,30,23,29,26,15,29,28,0,22,27,18,28,1,1,1,1,1,0,0,0,0,7,1,1,1,1,1,17,1,1,1,1,1,1,1,1,1,1,1,1,1,1,1,1,1,1451.txt
0,0,0,0,0,0,9,7,0,0,27,0,0,0,0,0,0,0,0,7,0,0,30,30,23,29,26,15,29,28,0,22,27,18,28,1,1,1,1,1,9,7,8,8,7,1,1,1,1,1,17,1,1,1,1,1,1,1,1,1,1,1,1,1,1,1,1,1,1453.txt
0,0,0,0,0,0,9,7,0,0,27,0,0,0,0,0,0,0,0,11,0,0,30,30,23,29,15,15,29,11,11,22,27,18,28,5,15,5,2,16,23,5,6,7,10,19,15,19,17,19,17,13,27,15,28,6,6,14,9,3,25,28,28,6,2,17,16,0,1454.txt
0,2,0,0,0,0,9,7,0,0,27,0,0,0,0,0,0,0,0,11,6,5,10,10,7,12,1,0,7,4,26,1,23,29,10,29,26,23,26,20,1,16,4,1,0,6,6,6,6,6,17,7,0,0,4,23,30,0,0,3,5,0,5,5,3,11,0,2,1456.txt
0,0,0,0,0,0,9,7,0,0,27,0,0,0,0,8,0,0,0,7,0,0,30,30,23,29,26,15,29,28,0,22,27,18,28,1,1,1,1,1,9,7,8,8,7,5,5,5,5,5,17,5,4,15,4,6,6,4,4,26,5,11,5,5,4,17,14,4,1458.txt
0,0,0,0,0,0,9,7,0,0,27,0,0,0,0,0,0,0,0,11,0,0,30,30,23,29,26,15,29,28,15,22,27,18,28,14,29,20,13,7,9,7,8,8,10,19,15,19,17,29,17,13,27,11,27,17,15,14,9,18,5,11,5,5,3,17,5,26,1460.txt
0,0,0,0,0,0,9,7,0,0,27,0,0,0,0,0,0,0,0,7,0,0,30,30,23,29,26,15,29,28,0,22,27,18,28,1,1,1,1,1,9,7,8,8,7,5,5,5,5,5,17,5,4,0,4,23,30,4,4,3,27,11,6,0,3,17,0,0,1462.txt
0,0,0,0,0,0,9,7,0,0,27,0,0,0,0,0,0,0,0,7,0,0,30,30,23,29,26,15,29,28,0,22,27,18,28,1,1,1,1,1,0,0,0,0,7,1,1,1,1,1,17,1,1,1,1,1,1,1,1,1,1,1,1,1,1,1,1,1,1465.txt
0,0,0,0,0,0,9,7,0,0,27,0,0,0,0,0,0,0,0,7,0,0,30,30,23,29,26,15,29,28,0,22,27,18,28,1,1,1,1,1,10,8,9,9,7,1,1,1,1,1,17,1,1,1,1,1,1,1,1,1,1,1,1,1,1,1,1,1,1467.txt
0,0,0,0,0,0,9,7,0,0,27,0,0,0,0,0,0,0,0,7,0,0,30,30,23,29,26,15,29,28,0,22,27,18,28,1,1,1,1,1,9,7,8,8,7,1,1,1,1,1,17,1,1,1,1,1,1,1,1,1,1,1,1,1,1,1,1,1,1469.txt
0,17,3,0,0,0,9,7,0,0,27,0,20,0,8,7,0,0,30,11,6,5,10,10,14,6,21,13,6,8,20,6,18,19,15,18,15,19,6,16,26,30,20,28,4,7,14,7,7,16,27,7,0,21,28,29,17,24,0,28,27,21,25,25,2,18,16,30,1470.txt
0,2,1,6,0,0,9,7,8,2,24,4,4,4,4,0,7,6,5,11,6,5,10,10,1,1,11,29,1,1,27,1,13,29,10,5,16,9,2,16,1,16,26,24,0,6,6,6,6,6,4,7,0,0,6,23,30,0,0,4,4,21,4,23,0,11,0,2,1473.txt
0,0,0,0,0,0,9,7,0,0,27,0,0,0,0,0,0,0,0,7,0,0,30,30,23,29,26,15,29,28,0,22,27,18,28,1,1,1,1,1,9,7,8,8,7,1,1,1,1,1,17,1,1,1,1,1,1,1,1,1,1,1,1,1,1,1,1,1,1475.txt
0,0,0,0,0,0,9,7,0,0,27,0,0,0,0,0,0,0,0,7,0,0,30,30,23,29,26,15,29,28,0,22,27,18,28,1,1,1,1,1,9,7,8,8,7,5,5,5,5,5,17,5,4,17,4,23,30,4,4,3,0,11,0,6,3,17,0,0,1477.txt
0,0,0,0,0,0,9,7,0,0,27,0,0,0,0,0,0,0,0,11,0,0,30,30,23,29,26,12,29,28,11,12,27,9,28,13,29,5,19,16,9,7,8,8,4,6,6,6,6,6,4,7,0,8,14,7,6,0,0,3,5,11,5,5,3,17,7,9,1480.txt
0,2,3,0,0,0,29,24,0,16,21,0,0,12,10,0,0,0,0,7,2,2,2,2,2,2,2,15,2,2,2,3,3,3,3,1,1,1,1,1,3,3,3,3,7,1,1,1,1,1,17,1,1,1,1,1,1,1,1,1,1,1,1,1,1,1,1,1,1482.txt
0,0,0,0,0,0,9,7,0,0,27,0,0,0,0,0,0,0,0,7,0,0,30,30,23,29,26,12,29,28,11,22,27,18,28,1,1,1,1,1,9,7,8,8,0,6,6,6,6,6,2,7,0,15,4,6,6,0,0,0,5,11,5,5,3,17,14,3,1484.txt
0,0,0,0,3,0,9,29,0,0,27,0,0,0,0,7,0,0,0,11,0,0,30,30,23,29,26,0,29,28,11,12,27,9,28,29,26,23,26,20,9,7,8,8,0,6,6,6,6,6,17,7,0,12,4,21,14,0,0,25,8,11,8,10,10,17,14,4,1487.txt
0,0,0,0,0,0,9,7,0,0,27,0,0,0,0,0,0,0,0,11,0,0,30,30,23,29,26,15,29,28,0,22,27,18,28,0,27,24,27,21,9,7,8,8,7,2,2,2,2,2,17,2,0,2,4,2,2,24,0,4,2,11,2,2,3,17,14,4,1490.txt
0,0,0,0,0,0,9,7,0,0,27,0,0,0,0,0,0,0,0,7,0,0,30,30,23,29,26,15,29,28,11,22,27,18,28,1,1,1,1,1,9,7,8,8,7,6,6,6,6,6,17,7,0,0,4,23,30,0,0,13,5,11,5,5,3,17,0,0,1491.txt
26,15,3,29,4,24,18,17,17,24,6,29,28,30,12,18,12,21,18,15,24,24,1,1,22,28,30,25,1,12,19,16,20,28,23,30,0,25,28,0,26,1,1,22,27,10,9,10,10,10,27,9,7,30,8,30,6,9,16,3,10,30,11,12,16,11,20,14,1494.txt
12,2,3,0,0,0,25,11,5,28,27,0,0,0,0,0,0,0,0,7,15,17,17,17,8,6,12,4,6,17,27,4,18,21,15,1,6,6,1,13,3,3,3,3,23,5,5,5,5,5,27,5,4,11,28,17,26,4,4,3,27,11,25,25,17,20,25,15,1497.txt
0,0,0,0,0,0,9,7,0,0,27,0,0,0,0,0,0,0,0,7,0,0,30,30,23,29,26,15,29,28,0,22,27,18,28,1,1,1,1,1,9,7,8,8,7,1,1,1,1,1,17,1,1,1,1,1,1,1,1,1,1,1,1,1,1,1,1,1,1499.txt
0,0,0,0,0,0,9,7,0,0,27,0,0,0,0,0,0,0,0,11,0,0,30,30,23,29,26,15,29,28,0,22,27,18,28,29,26,23,26,20,9,7,8,8,7,2,2,2,2,2,17,2,1,2,1,2,2,1,1,1,2,1,2,2,1,1,1,1,1502.txt
0,0,0,0,3,0,9,29,0,0,27,0,0,0,0,7,0,0,0,11,0,0,30,30,23,29,26,12,29,28,11,12,27,9,28,29,26,23,26,20,9,7,8,8,4,6,6,6,6,6,5,7,0,11,4,19,9,0,0,7,8,0,8,10,10,17,14,26,1504.txt
0,0,0,0,0,0,9,7,0,0,27,0,0,0,0,7,0,0,0,11,0,0,30,30,23,29,15,8,29,11,11,0,27,0,28,17,15,19,14,16,7,5,6,7,21,17,17,18,20,29,25,20,26,20,27,26,17,18,11,3,27,28,25,25,2,17,17,10,1505.txt
0,0,5,0,22,0,4,9,3,0,2,2,14,2,18,0,0,0,0,7,0,0,30,30,23,29,26,15,29,28,0,22,27,18,28,1,1,1,1,1,9,7,8,8,7,2,2,2,2,2,17,2,1,2,1,2,2,1,1,1,2,1,2,2,1,1,1,1,1507.txt
0,2,0,0,0,0,9,7,0,0,27,0,0,0,0,0,0,0,0,7,6,5,10,10,7,12,11,15,7,4,27,4,13,16,10,1,1,1,1,1,3,3,3,3,7,1,1,1,1,1,17,1,4,1,4,1,1,4,4,16,1,12,1,1,3,13,14,17,1509.txt
0,0,0,0,0,0,9,7,0,0,27,0,0,0,0,0,0,0,0,7,0,0,30,30,23,29,26,7,29,28,11,22,27,18,28,2,2,2,2,10,9,7,8,8,19,4,4,18,4,29,2,20,13,0,28,6,6,14,3,4,5,21,5,5,3,17,4,9,1511.txt
0,0,0,0,0,0,9,7,0,0,27,0,0,0,0,8,0,0,0,11,0,0,30,30,23,29,26,12,29,28,11,0,27,0,28,30,0,0,0,0,9,7,8,8,0,6,6,6,6,6,17,7,0,0,4,6,6,0,0,3,5,11,5,5,4,17,14,10,1513.txt
0,0,0,0,0,0,9,7,0,0,4,0,0,0,0,0,0,0,0,7,0,0,30,30,23,29,26,15,29,28,0,22,27,18,28,29,26,23,26,20,9,7,8,8,10,19,16,19,19,29,21,13,3,11,4,26,9,3,10,3,5,11,5,5,3,17,14,5,1515.txt
0,0,0,0,0,0,9,7,0,0,27,0,0,0,0,0,0,0,0,7,0,0,30,30,23,29,26,15,29,28,0,22,27,18,28,1,1,1,1,1,9,7,8,8,7,1,1,1,1,1,17,1,1,1,1,1,1,1,1,1,1,1,1,1,1,1,1,1,1518.txt
0,0,0,0,0,0,9,7,0,0,27,0,0,0,0,7,0,0,0,11,0,0,30,30,23,29,15,12,29,11,15,12,27,9,28,17,15,19,2,16,7,5,6,7,10,19,15,19,17,29,5,13,13,20,27,24,17,14,9,3,27,28,25,25,3,17,22,10,1519.txt
0,0,0,0,0,0,9,7,0,0,27,0,0,0,0,0,0,0,0,7,0,0,30,30,23,29,26,15,29,28,11,22,27,18,28,1,1,1,1,1,9,7,8,8,10,5,5,5,5,5,17,5,4,0,13,23,30,4,4,4,4,11,20,23,3,17,0,0,1521.txt
0,0,0,0,0,0,9,7,0,0,27,0,0,0,0,0,0,0,0,7,0,0,30,30,23,29,26,15,29,28,0,22,27,18,28,1,1,1,1,1,9,7,8,8,7,1,1,1,1,1,17,1,0,1,4,1,1,0,0,0,1,11,1,1,3,17,14,3,1523.txt
0,0,0,0,0,0,9,7,0,0,27,0,0,0,0,7,0,0,0,7,0,0,30,30,23,29,26,15,29,28,11,22,27,18,28,1,1,1,1,1,9,7,8,8,7,6,6,6,6,6,1,7,0,17,28,23,30,0,0,3,0,11,0,6,5,17,0,0,1526.txt
0,0,0,0,0,0,9,7,0,0,27,0,0,0,0,0,0,0,0,7,0,0,30,30,23,29,26,15,29,28,0,22,27,18,28,1,1,1,1,1,9,7,8,8,7,5,5,5,5,5,17,5,4,15,28,17,19,4,4,3,5,12,5,5,3,17,5,5,1528.txt
0,2,1,0,0,0,9,7,0,0,27,0,0,0,0,0,0,0,0,11,22,18,15,15,20,12,21,25,7,4,29,28,13,19,10,0,0,0,0,0,20,14,20,24,21,17,18,17,21,18,17,10,11,12,14,19,14,18,12,24,8,20,8,10,13,11,23,14,1529.txt
0,0,0,0,0,0,9,7,0,0,27,0,0,0,0,7,0,0,0,11,0,0,30,30,23,29,26,0,29,28,11,0,27,0,28,29,26,23,26,20,9,7,8,8,0,6,6,6,6,6,4,7,0,0,4,6,6,0,0,0,5,11,5,5,4,17,8,4,1532.txt
0,0,0,0,0,0,9,7,0,0,27,0,0,0,0,0,0,0,0,7,0,0,30,30,23,29,26,15,29,28,0,22,27,18,28,1,1,1,1,1,9,7,8,8,7,5,5,5,5,5,17,5,4,30,28,2,6,4,4,3,0,12,0,7,3,17,22,6,1534.txt
26,15,3,29,4,21,25,11,5,10,5,6,23,15,16,18,24,12,18,17,6,5,10,10,7,6,17,26,6,20,21,6,24,23,15,2,2,2,2,7,20,17,20,28,19,17,15,17,17,29,17,10,12,17,27,24,17,14,9,3,27,10,25,7,2,11,17,14,1536.txt
0,0,0,0,0,0,9,7,0,0,27,0,0,0,0,0,0,0,0,11,0,0,30,30,23,29,15,15,29,11,11,22,27,18,28,29,26,23,26,20,7,5,6,7,0,6,6,6,6,6,17,7,0,0,4,23,30,0,0,3,5,11,5,5,3,17,0,0,1538.txt
0,0,0,0,0,0,9,7,0,0,4,0,0,0,0,0,0,0,0,7,0,0,30,30,23,29,26,15,29,28,0,22,27,18,28,1,1,1,1,1,9,7,8,8,7,1,1,1,1,1,0,1,1,1,1,1,1,1,1,1,1,1,1,1,1,1,1,1,1540.txt
0,0,0,0,0,0,9,7,0,0,27,0,0,0,0,0,0,0,0,7,0,0,30,30,23,29,26,15,29,28,0,22,27,18,28,1,1,1,1,1,9,7,8,8,7,1,1,1,1,1,17,1,1,1,1,1,1,1,1,1,1,1,1,1,1,1,1,1,1543.txt
0,0,0,0,0,0,9,7,0,0,27,0,0,0,0,0,0,0,0,7,0,0,30,30,23,29,26,15,29,28,0,22,27,18,28,1,1,1,1,1,9,7,8,8,7,5,5,5,5,5,17,5,1,10,1,18,13,1,1,1,27,1,12,25,1,1,1,1,1545.txt
26,2,1,15,1,12,22,18,15,8,6,29,7,30,17,25,24,14,1,19,6,5,10,10,7,12,11,26,7,4,27,4,13,11,10,29,26,23,26,20,22,17,4,22,0,6,6,6,6,6,4,7,0,0,4,6,6,0,0,0,5,11,5,5,4,13,14,17,1546.txt
0,0,0,0,0,0,9,7,0,0,27,0,0,0,0,0,0,0,0,11,0,0,30,30,23,29,26,12,29,28,11,22,27,18,28,2,2,2,2,10,9,7,8,8,13,18,15,18,17,29,6,20,13,0,13,23,30,14,9,4,5,11,5,5,0,7,0,0,1548.txt
0,0,0,0,0,0,9,7,0,0,27,0,0,0,0,0,0,0,0,7,0,0,30,30,23,29,26,15,29,28,0,22,27,18,28,1,1,1,1,1,9,7,8,8,7,5,5,5,5,5,2,5,4,5,28,17,9,4,4,11,5,12,5,5,3,17,22,5,1551.txt
0,0,0,0,0,0,9,7,0,0,27,0,0,0,0,0,0,0,0,7,0,0,30,30,23,29,26,15,29,28,0,22,27,18,28,1,1,1,1,1,9,7,8,8,7,1,1,1,1,1,17,1,0,1,4,1,1,0,0,4,1,11,1,1,3,17,0,0,1552.txt
0,0,0,0,0,0,9,7,0,0,27,0,0,0,0,0,0,0,0,7,0,0,30,30,23,29,26,15,29,28,0,22,27,18,28,1,1,1,1,1,9,7,8,8,7,1,1,1,1,1,17,1,1,1,1,1,1,1,1,1,1,1,1,1,1,1,1,1,1556.txt
0,0,0,0,0,0,9,7,0,0,27,0,0,0,0,0,0,0,0,7,0,0,30,30,23,29,26,15,29,28,0,22,27,18,28,1,1,1,1,1,9,7,8,8,7,1,1,1,1,1,17,1,1,1,1,1,1,1,1,1,1,1,1,1,1,1,1,1,1558.txt
0,0,5,0,0,0,9,7,0,0,27,0,0,0,0,7,0,0,0,11,0,0,30,30,23,29,26,5,29,28,15,0,27,0,28,29,26,23,26,20,9,7,8,8,0,6,6,6,6,6,6,7,0,4,6,23,30,0,0,3,5,11,5,5,3,17,0,0,1561.txt
0,0,0,0,0,0,9,7,0,0,4,0,0,0,0,0,0,0,0,7,0,0,30,30,23,29,26,15,29,28,0,22,27,18,28,1,1,1,1,1,9,7,8,8,7,1,1,1,1,1,0,1,1,1,1,1,1,1,1,1,1,1,1,1,1,1,1,1,1563.txt
0,0,0,0,0,0,9,7,0,0,27,0,0,0,0,0,0,0,0,7,0,0,30,30,23,29,26,15,29,28,0,22,27,18,28,1,1,1,1,1,9,7,8,8,7,1,1,1,1,1,17,1,1,1,1,1,1,1,1,1,1,1,1,1,1,1,1,1,1565.txt
0,0,0,0,0,0,9,7,0,0,27,0,0,0,0,0,0,0,0,7,0,0,30,30,23,29,26,15,29,28,0,22,27,18,28,1,1,1,1,1,9,7,8,8,7,1,1,1,1,1,17,1,1,1,1,1,1,1,1,1,1,1,1,1,1,1,1,1,1567.txt
0,0,0,0,0,0,9,7,0,0,27,0,0,0,0,0,0,0,0,7,0,0,30,30,23,29,26,0,29,28,0,22,27,18,28,1,1,1,1,1,0,0,0,0,0,15,13,15,15,3,17,3,2,0,2,23,30,27,27,0,19,2,10,11,3,7,0,0,1570.txt
0,0,0,0,0,0,9,7,0,0,27,0,0,0,0,7,0,0,0,11,0,0,30,30,23,29,26,12,29,28,11,22,27,18,28,2,2,2,13,10,9,7,8,8,0,6,6,6,6,6,17,7,0,0,6,23,30,0,0,4,5,8,5,5,5,17,0,0,1572.txt
0,0,0,0,0,0,9,7,0,0,27,0,0,0,0,0,0,0,0,11,0,0,30,30,23,29,26,15,29,28,11,22,27,18,28,29,26,23,26,20,9,7,8,8,10,19,15,19,17,29,6,13,3,0,4,23,30,3,9,3,5,11,5,5,3,17,0,0,1574.txt
0,0,0,0,0,0,9,7,0,0,27,0,0,0,0,0,0,0,0,7,0,0,30,30,23,29,26,15,29,28,0,22,27,18,28,1,1,1,1,1,9,7,8,8,7,6,6,6,6,6,17,7,0,7,4,23,30,0,0,0,5,11,5,5,3,17,0,0,1581.txt
0,0,0,0,0,0,9,7,0,0,27,0,0,0,0,0,0,0,0,7,0,0,30,30,23,29,26,15,29,28,0,22,27,18,28,1,1,1,1,1,9,7,8,8,7,1,1,1,1,1,17,1,4,1,4,1,1,4,4,0,1,11,1,1,3,17,14,4,1583.txt
0,0,0,0,0,0,9,7,0,0,27,0,0,0,0,7,0,0,0,11,0,0,30,30,23,29,26,12,29,28,11,11,27,8,28,2,2,2,2,10,9,7,8,8,10,18,27,19,25,29,6,13,11,15,14,6,6,14,25,3,5,6,5,5,4,17,4,10,1585.txt
0,0,0,0,0,0,9,7,0,0,27,0,0,0,0,0,0,0,0,7,0,0,30,30,23,29,26,8,29,28,11,22,27,18,28,29,26,23,26,20,9,7,8,8,0,6,6,6,6,6,17,7,0,0,4,23,30,0,0,3,5,11,5,5,3,17,0,0,1587.txt
0,0,0,0,0,0,9,7,0,0,27,0,0,0,0,0,0,0,0,11,0,0,30,30,23,29,26,12,29,28,11,22,27,18,28,29,26,23,26,20,9,7,8,8,0,6,6,6,6,6,17,7,0,6,4,23,30,0,0,3,5,11,5,5,3,17,0,0,1589.txt
0,0,0,0,0,0,9,7,0,0,27,0,0,0,0,0,0,0,0,7,0,0,30,30,23,29,26,15,29,28,0,22,27,18,28,1,1,1,1,1,9,7,8,8,7,1,1,1,1,1,17,1,1,1,1,1,1,1,1,1,1,1,1,1,1,1,1,1,1590.txt
0,0,0,0,0,0,9,7,0,0,27,0,0,0,0,0,0,0,0,11,0,0,30,30,23,29,26,12,29,28,11,0,27,0,28,29,26,23,26,20,9,7,8,8,0,6,6,6,6,6,4,7,0,0,4,6,6,0,0,3,5,11,5,5,3,17,14,4,1594.txt
0,0,0,0,0,0,9,7,0,0,27,0,0,0,0,0,0,0,0,7,0,0,30,30,23,29,26,15,29,28,0,22,27,18,28,1,1,1,1,1,9,7,8,8,7,1,1,1,1,1,17,1,1,1,1,1,1,1,1,1,1,1,1,1,1,1,1,1,1596.txt
0,0,0,0,0,0,9,7,0,0,27,0,0,0,0,0,0,0,0,7,0,0,30,30,23,29,26,15,29,28,0,22,27,18,28,1,1,1,1,1,9,7,8,8,7,1,1,1,1,1,17,1,1,1,1,1,1,1,1,1,1,1,1,1,1,1,1,1,1598.txt
0,0,0,0,0,0,9,7,0,0,27,0,0,0,0,0,0,0,0,7,0,0,30,30,23,29,26,15,29,28,0,22,27,18,28,1,1,1,1,1,9,7,8,8,7,1,1,1,1,1,17,1,1,1,1,1,1,1,1,1,1,1,1,1,1,1,1,1,1600.txt
0,0,0,0,0,0,9,7,0,0,27,0,0,0,0,0,0,0,0,11,0,0,30,30,23,29,26,12,29,28,11,10,27,7,28,2,2,2,2,10,9,7,8,8,0,6,6,6,6,6,6,7,0,0,14,23,30,0,0,3,5,8,5,5,3,17,0,0,1602.txt
0,0,0,0,0,0,9,7,0,0,27,0,0,0,0,0,0,0,0,7,0,0,30,30,23,29,26,15,29,28,0,22,27,18,28,1,1,1,1,1,9,7,8,8,7,2,2,2,2,2,17,2,1,2,1,2,2,1,1,1,2,1,2,2,1,1,1,1,1604.txt
0,0,0,0,0,0,9,7,0,0,27,0,0,0,0,0,0,0,0,11,0,0,30,30,23,29,26,12,29,28,11,22,27,18,28,29,26,23,26,20,9,7,8,8,16,6,6,6,6,6,10,7,0,0,4,23,30,0,0,4,5,11,5,5,3,17,0,0,1605.txt
0,0,0,0,0,0,9,7,0,0,27,0,0,0,0,7,0,0,0,11,0,0,30,30,23,29,26,8,29,28,11,22,27,18,28,29,26,23,26,20,9,7,8,8,21,18,16,18,19,29,29,20,11,11,4,18,13,12,10,3,5,11,5,5,11,17,14,26,1608.txt
0,0,0,0,0,0,9,7,0,0,27,0,0,0,0,0,0,0,0,7,0,0,30,30,23,29,26,15,29,28,11,22,27,18,28,1,1,1,1,1,9,7,8,8,0,6,6,6,6,6,17,7,0,0,4,6,6,0,0,0,5,11,5,5,3,3,14,4,1610.txt
0,0,0,0,0,0,9,7,0,0,27,0,0,0,0,7,0,0,0,11,0,0,30,30,23,29,26,5,29,28,15,10,27,7,28,2,2,2,2,10,9,7,8,8,0,6,6,6,6,6,6,7,0,0,13,23,30,0,0,3,5,6,5,5,4,17,0,0,1612.txt
0,0,0,0,0,0,9,7,0,0,27,0,0,0,0,0,0,0,0,7,0,0,30,30,23,29,26,15,29,28,0,22,27,18,28,1,1,1,1,1,9,7,8,8,7,1,1,1,1,1,17,1,1,1,1,1,1,1,1,1,1,1,1,1,1,1,1,1,1615.txt
0,0,0,0,0,0,9,7,0,0,27,0,0,0,0,0,0,0,0,11,0,0,30,30,23,29,26,15,29,28,15,22,27,18,28,29,26,23,26,20,9,7,8,8,10,18,4,19,4,19,17,13,13,0,6,23,30,14,3,4,5,11,5,5,3,17,0,0,1616.txt
0,0,0,0,0,0,9,7,0,0,27,0,0,0,0,0,0,0,0,7,0,0,30,30,23,29,26,15,29,28,0,22,27,18,28,1,1,1,1,1,9,7,8,8,7,1,1,1,1,1,17,1,0,1,4,1,1,0,0,3,1,11,1,1,3,17,14,4,1618.txt
0,0,0,0,0,0,9,7,0,0,27,0,0,0,0,7,0,0,0,11,0,0,30,30,23,29,26,8,29,28,0,12,27,9,28,13,23,5,13,25,9,7,8,8,4,6,7,6,6,7,17,7,0,30,14,30,6,24,0,3,5,11,5,5,5,17,7,5,1622.txt
0,0,0,0,0,0,9,7,0,0,4,0,0,0,0,0,0,0,0,7,0,0,30,30,23,29,26,15,29,28,0,22,27,18,28,1,1,1,1,1,9,7,8,8,7,5,5,5,5,5,0,5,4,17,4,23,30,4,4,4,0,11,0,0,3,17,0,0,1623.txt
0,0,0,0,0,0,9,7,0,0,27,0,0,0,0,0,0,0,0,7,0,0,30,30,23,29,26,15,29,28,0,22,27,18,28,1,1,1,1,1,9,7,8,8,7,1,1,1,1,1,17,1,1,1,1,1,1,1,1,1,1,1,1,1,1,1,1,1,1626.txt
0,0,0,0,0,0,9,7,0,0,27,0,0,0,0,7,0,0,0,11,0,0,0,0,0,0,0,5,0,0,15,10,0,7,0,29,26,23,26,20,9,7,8,8,0,6,6,6,6,6,1,7,0,0,4,23,30,0,0,4,5,11,5,5,10,17,0,0,1629.txt
0,0,0,0,0,0,9,7,0,0,27,0,0,0,0,0,0,0,0,7,0,0,30,30,23,29,26,15,29,28,0,22,27,18,28,1,1,1,1,1,9,7,8,8,0,6,6,6,6,6,17,7,0,0,4,23,30,0,0,0,5,11,5,5,3,17,0,0,1631.txt
0,0,0,0,0,0,9,7,0,0,27,0,0,0,0,0,0,0,0,7,0,0,30,30,23,29,26,15,29,28,0,22,27,18,28,24,15,5,19,9,9,7,8,8,7,6,7,6,6,7,17,0,0,30,14,2,6,24,0,16,25,11,28,7,3,17,4,6,1632.txt
0,0,0,0,0,0,9,7,0,0,27,0,0,0,0,0,0,0,0,11,0,0,30,30,23,29,26,12,29,28,11,22,27,18,28,29,26,23,26,20,9,7,8,8,0,6,7,6,6,7,6,7,0,0,4,23,30,0,0,3,5,11,5,5,3,17,0,0,1637.txt
0,0,0,0,0,0,9,7,0,0,27,0,0,0,0,0,0,0,0,11,0,0,30,30,23,29,26,12,29,28,0,0,27,0,28,2,2,2,13,16,9,7,8,8,0,6,6,6,6,6,17,7,0,15,14,6,6,0,0,3,5,11,5,5,3,17,22,5,1639.txt
0,2,0,0,0,0,9,7,0,0,27,0,0,0,0,0,0,0,0,7,2,2,2,2,8,2,25,15,19,8,26,1,23,29,6,1,1,1,1,1,3,3,3,3,7,5,5,5,5,5,17,5,4,17,4,23,30,4,4,4,27,11,12,8,12,27,21,8,1641.txt
0,0,0,0,0,0,9,7,0,0,27,0,0,0,0,0,0,0,0,7,0,0,30,30,23,29,26,12,29,28,11,22,27,18,28,1,1,1,1,1,9,7,8,8,0,6,6,6,6,6,2,7,0,0,4,6,6,0,0,0,4,11,4,23,13,22,16,0,1643.txt
0,0,0,0,0,0,9,7,0,0,27,0,0,0,0,0,0,0,0,11,0,0,30,30,23,29,26,12,29,28,11,22,27,18,28,29,26,23,26,20,9,7,8,8,0,6,7,6,6,7,6,7,0,17,4,23,30,0,0,4,6,11,25,8,3,17,0,0,1645.txt
0,0,0,0,0,0,9,7,0,0,27,0,0,0,0,0,0,0,0,11,0,0,30,30,23,29,26,12,29,28,11,10,27,7,28,0,0,25,28,0,9,7,8,8,0,6,6,6,6,6,17,7,0,0,4,23,30,0,0,0,4,11,20,23,3,17,0,0,1647.txt
0,0,0,0,0,0,9,7,0,0,27,0,0,0,0,0,0,0,0,11,0,0,30,30,23,29,26,15,29,28,15,22,27,18,28,2,2,2,19,16,9,7,8,8,7,6,7,6,6,7,17,7,0,27,27,17,17,24,0,3,27,11,25,25,3,17,27,10,1650.txt
0,0,0,0,0,0,9,7,0,0,27,0,0,0,0,0,0,0,0,7,0,0,30,30,23,29,26,15,29,28,11,22,27,18,28,1,1,1,1,1,9,7,8,8,10,5,5,5,5,5,2,5,4,15,4,6,6,4,4,3,5,11,5,5,3,17,14,4,1652.txt
0,0,0,0,0,0,9,7,0,0,27,0,0,0,0,0,0,0,0,7,0,0,30,30,23,29,26,15,29,28,0,22,27,18,28,1,1,1,1,1,10,8,9,9,7,1,1,1,1,1,17,1,1,1,1,1,1,1,1,1,1,1,1,1,1,1,1,1,1654.txt
0,0,0,0,0,0,9,7,0,0,27,0,0,0,0,0,0,0,0,7,0,0,30,30,23,29,26,15,29,28,11,22,27,18,28,1,1,1,1,1,9,7,8,8,0,6,6,6,6,6,17,7,0,0,4,23,30,0,0,3,5,11,5,5,3,17,0,0,1655.txt
0,0,0,0,0,0,9,7,0,0,27,0,0,0,0,0,0,0,0,11,0,0,30,30,23,29,26,7,29,28,11,22,27,18,28,29,26,23,26,20,9,7,8,8,18,6,6,6,6,6,25,7,0,20,27,18,14,0,0,7,5,11,5,5,3,17,14,3,1657.txt
0,0,0,0,0,0,9,7,0,0,27,0,0,0,0,0,0,0,0,7,0,0,30,30,23,29,26,15,29,28,0,22,27,18,28,1,1,1,1,1,9,7,8,8,7,1,1,1,1,1,17,1,1,1,1,1,1,1,1,1,1,1,1,1,1,1,1,1,1660.txt
0,0,0,0,0,0,9,7,0,0,27,0,0,0,0,7,0,0,0,11,0,0,30,30,23,29,15,12,29,11,11,22,27,18,28,13,23,9,19,27,8,6,7,7,4,6,6,6,6,6,13,7,0,15,27,6,6,0,24,3,8,11,8,10,3,17,7,4,1662.txt
0,0,0,0,0,0,9,7,0,0,27,0,0,0,0,0,0,0,0,11,0,0,30,30,23,29,26,12,29,28,11,22,27,18,28,29,26,23,26,20,9,7,8,8,0,6,6,6,6,6,6,7,0,0,4,23,30,0,0,3,5,11,5,5,3,17,0,0,1663.txt
0,0,0,0,0,0,9,7,0,0,27,0,0,0,0,0,0,0,0,7,0,0,30,30,23,29,26,15,29,28,0,22,27,18,28,1,1,1,1,1,9,7,8,8,7,6,6,6,6,6,17,7,0,15,4,23,30,0,0,3,5,11,5,5,3,17,0,0,1666.txt
0,0,0,0,0,0,9,7,0,0,27,0,0,0,0,0,0,0,0,7,0,0,30,30,23,29,26,15,29,28,11,22,27,18,28,1,1,1,1,1,9,7,8,8,7,1,1,1,1,1,2,1,1,1,1,1,1,1,1,1,1,1,1,1,1,1,1,1,1667.txt
0,0,0,0,0,0,9,7,0,0,27,0,0,0,0,0,0,0,0,7,0,0,30,30,23,29,26,15,29,28,0,22,27,18,28,1,1,1,1,1,9,7,8,8,7,1,1,1,1,1,17,1,1,1,1,1,1,1,1,1,1,1,1,1,1,1,1,1,1669.txt
0,0,0,0,0,0,9,7,0,0,27,0,0,0,0,0,0,0,0,7,0,0,30,30,23,29,26,15,29,28,0,22,27,18,28,1,1,1,1,1,9,7,8,8,7,1,1,1,1,1,17,1,1,1,1,1,1,1,1,1,1,1,1,1,1,1,1,1,1671.txt
0,0,0,0,0,0,9,7,0,0,27,0,0,0,0,0,0,0,0,7,0,0,30,30,23,29,26,15,29,28,11,22,27,18,28,1,1,1,1,1,0,0,0,0,7,6,6,6,6,6,17,7,0,0,0,23,30,0,0,0,5,11,5,5,3,7,0,0,1673.txt
0,0,0,0,0,0,9,7,0,0,27,0,0,0,0,0,0,0,0,7,0,0,30,30,23,29,26,15,29,28,0,22,27,18,28,1,1,1,1,1,9,7,8,8,7,6,7,6,6,7,14,7,0,14,4,23,30,25,0,3,0,11,0,6,3,17,0,0,1676.txt
0,0,0,0,0,0,9,7,0,0,27,0,0,0,0,0,0,0,0,7,0,0,30,30,23,29,26,15,29,28,0,22,27,18,28,1,1,1,1,1,9,7,8,8,7,1,1,1,1,1,17,1,1,1,1,1,1,1,1,1,1,1,1,1,1,1,1,1,1677.txt
0,0,0,0,0,0,9,7,0,0,27,0,0,0,0,7,0,0,0,11,0,0,30,30,23,29,26,12,29,28,11,20,27,27,28,29,26,23,26,20,9,7,8,8,0,6,7,6,6,7,4,7,0,9,14,9,6,26,0,3,5,11,5,5,10,3,27,10,1680.txt
0,17,3,0,0,0,24,11,5,0,27,0,0,0,0,0,0,0,0,11,6,5,10,10,14,6,11,30,6,17,27,4,18,10,15,0,0,25,28,0,17,18,14,22,4,8,6,22,8,6,17,7,0,6,4,23,30,0,0,3,4,11,20,23,2,11,24,2,1682.txt
0,0,0,0,0,0,9,7,0,0,27,0,0,0,0,0,0,0,0,7,0,0,30,30,23,29,26,8,29,28,0,22,27,18,28,1,1,1,1,1,9,7,8,8,0,6,6,6,6,6,17,7,0,0,4,23,30,0,0,0,5,11,5,5,3,17,0,0,1684.txt
0,0,0,0,0,0,9,7,0,0,27,0,0,0,0,0,0,0,0,7,0,0,30,30,23,29,26,15,29,28,0,22,27,18,28,1,1,1,1,1,9,7,8,8,7,1,1,1,1,1,17,1,1,1,1,1,1,1,1,1,1,1,1,1,1,1,1,1,1686.txt
0,0,0,0,0,0,9,7,0,0,27,0,0,0,0,0,0,0,0,11,0,0,30,30,23,29,26,15,29,28,0,22,27,18,28,29,26,23,26,20,0,0,0,0,7,2,2,2,2,2,17,2,0,2,4,2,2,24,0,13,2,11,2,2,0,7,14,6,1692.txt
0,0,0,0,0,0,9,7,0,0,27,0,0,0,0,0,0,0,0,7,0,0,0,0,0,0,0,2,0,0,0,9,0,6,0,1,1,1,1,1,9,7,8,8,1,1,1,1,1,1,17,1,1,1,1,1,1,1,1,1,1,1,1,1,1,1,1,1,1694.txt
0,0,0,0,0,0,9,7,0,0,27,0,0,0,0,0,0,0,0,7,0,0,30,30,23,29,26,15,29,28,0,22,27,18,28,1,1,1,1,1,9,7,8,8,7,1,1,1,1,1,17,1,1,1,1,1,1,1,1,1,1,1,1,1,1,1,1,1,1696.txt
0,0,0,0,0,0,9,7,0,0,27,0,0,0,0,0,0,0,0,7,0,0,30,30,23,29,26,15,29,28,0,22,27,18,28,1,1,1,1,1,9,7,8,8,7,1,1,1,1,1,17,1,1,1,1,1,1,1,1,1,1,1,1,1,1,1,1,1,1698.txt
0,0,0,0,0,0,9,7,0,0,27,0,0,0,0,0,0,0,0,7,0,0,30,30,23,29,26,15,29,28,0,22,27,18,28,1,1,1,1,1,9,7,8,8,7,1,1,1,1,1,17,1,1,1,1,1,1,1,1,1,1,1,1,1,1,1,1,1,1699.txt
0,0,0,0,0,0,9,7,0,0,27,0,0,0,0,0,0,0,0,7,0,0,30,30,23,29,26,15,29,28,0,22,27,18,28,1,1,1,1,1,9,7,8,8,7,1,1,1,1,1,17,1,0,1,4,1,1,0,0,0,1,11,1,1,3,17,0,0,1701.txt
0,0,0,0,0,0,9,7,0,0,27,0,0,0,0,0,0,0,0,7,0,0,30,30,23,29,26,15,29,28,11,22,27,18,28,1,1,1,1,1,9,7,8,8,0,6,6,6,6,6,2,7,0,0,28,23,30,0,0,0,5,12,5,5,3,17,0,0,1705.txt
0,0,0,0,0,0,9,7,0,0,27,0,0,0,0,0,0,0,0,7,0,0,30,30,23,29,26,15,29,28,11,22,27,18,28,1,1,1,1,1,0,0,0,0,7,1,1,1,1,1,17,1,0,1,4,1,1,0,0,0,1,11,1,1,3,17,0,0,1707.txt
0,0,0,0,0,0,9,7,0,0,27,0,0,0,0,0,0,0,0,7,0,0,30,30,23,29,26,15,29,28,0,22,27,18,28,1,1,1,1,1,0,0,0,0,7,1,1,1,1,1,17,1,1,1,1,1,1,1,1,1,1,1,1,1,1,1,1,1,1709.txt
0,0,0,0,0,0,9,7,0,0,27,0,0,0,0,0,0,0,0,7,0,0,30,30,23,29,26,15,29,28,0,22,27,18,28,1,1,1,1,1,9,7,8,8,7,1,1,1,1,1,17,1,1,1,1,1,1,1,1,1,1,1,1,1,1,1,1,1,1715.txt
0,0,0,0,0,0,9,7,0,0,27,0,0,0,0,0,0,0,0,11,0,0,30,30,23,29,26,0,29,28,11,10,27,7,28,29,26,23,26,20,9,7,8,8,0,6,7,6,6,7,4,7,0,0,4,23,30,0,0,3,5,11,5,5,3,17,0,0,1717.txt
0,0,0,0,0,0,9,7,0,0,27,0,0,0,0,0,0,0,0,7,0,0,30,30,23,29,26,15,29,28,0,22,27,18,28,1,1,1,1,1,0,0,0,0,7,1,1,1,1,1,17,1,1,1,1,1,1,1,1,1,1,1,1,1,1,1,1,1,1720.txt
