0,1,2,3,4,5,6,7,8,9,10,11,12,13,14,15,16,17,18,19,20,21,22,23,24,25,26,27,28,29,30,31,32,33,34,35,36,37,38,39,40,41,42,43,44,45,46,47,48,49,50,51,52,53,54,55,56,57,58,59,filename
0,0,0,0,9,0,4,5,5,7,17,8,0,0,0,10,7,19,6,3,0,0,0,0,20,4,3,3,3,0,6,9,8,9,25,7,4,28,3,7,3,2,3,19,3,7,3,6,7,5,0,0,0,8,0,5,5,4,24,5,2.txt
29,9,29,10,28,17,15,26,24,30,22,10,23,17,29,9,1,12,10,8,3,25,21,1,15,14,27,12,13,26,23,23,23,11,17,17,18,21,15,17,19,28,21,14,17,9,30,29,10,10,10,11,22,17,30,23,24,15,14,16,5.txt
0,0,0,0,9,0,4,5,5,7,7,14,0,0,0,10,10,17,19,23,0,0,0,0,20,5,0,0,0,15,6,9,8,9,2,7,4,28,3,0,0,2,19,19,20,21,15,19,23,22,0,0,0,9,0,8,15,27,6,13,9.txt
0,0,0,0,9,0,4,5,5,7,17,8,8,4,7,10,7,19,6,3,6,5,5,6,20,4,3,3,3,26,6,2,30,2,3,7,4,28,3,7,3,2,3,19,3,7,3,6,7,5,24,26,30,3,30,5,5,2,24,8,12.txt
0,0,0,0,9,0,4,5,5,7,17,8,0,0,0,10,7,19,6,3,0,0,0,0,20,4,0,0,0,0,6,9,8,9,2,7,4,28,3,0,0,2,19,19,20,21,15,19,23,4,0,0,0,25,0,10,12,20,9,13,14.txt
0,0,0,0,9,0,4,5,5,7,17,8,29,2,7,10,7,29,6,3,6,5,5,2,20,4,14,23,16,22,6,11,12,13,25,8,6,7,3,25,3,10,3,19,3,7,18,6,7,5,28,17,26,13,21,2,2,5,2,2,16.txt
0,0,0,0,9,0,4,5,5,7,17,8,8,13,7,10,7,19,6,3,6,5,5,6,20,4,3,3,3,22,6,2,2,2,25,7,4,28,3,7,3,2,3,19,3,7,3,6,7,5,30,17,3,8,27,2,2,6,2,8,17.txt
0,0,0,0,9,0,4,5,5,7,17,8,0,0,0,10,7,19,6,3,0,0,0,0,20,4,14,23,16,0,6,9,8,9,25,8,4,7,3,15,0,2,19,19,20,27,3,18,30,29,0,0,0,24,0,5,5,6,24,9,21.txt
0,0,0,0,9,0,4,5,5,7,17,8,0,0,0,10,7,19,6,3,0,0,0,0,20,4,3,3,3,0,6,9,8,9,3,7,4,28,3,7,0,27,19,19,20,24,18,15,30,29,0,0,0,13,0,5,5,2,24,8,23.txt
0,0,0,0,9,0,4,5,5,7,17,8,8,13,7,10,7,19,6,3,6,5,5,6,15,4,14,22,15,22,6,2,2,2,17,9,23,9,17,8,12,11,13,19,13,13,30,30,9,26,0,0,0,9,0,13,12,26,14,28,24.txt
0,0,0,0,9,0,4,5,5,7,17,8,0,0,0,10,7,19,6,3,0,0,0,0,7,4,0,0,0,0,17,30,9,21,2,9,1,9,9,8,0,15,19,19,20,21,15,20,23,4,0,0,0,25,0,10,13,20,9,13,26.txt
0,0,0,0,9,0,4,5,5,7,17,8,8,13,7,10,7,19,6,3,6,5,5,6,20,4,0,0,0,22,6,2,30,2,0,7,6,28,3,0,15,11,15,19,14,7,0,6,7,5,27,18,25,25,21,0,0,0,0,0,28.txt
0,0,0,0,0,0,4,5,5,7,17,8,25,8,2,10,7,19,6,3,14,9,9,9,30,4,2,2,2,2,30,2,29,2,8,10,1,10,8,16,3,2,3,19,3,16,8,8,18,9,30,3,3,3,21,12,11,11,3,24,30.txt
29,23,11,4,1,11,7,26,1,13,13,13,13,4,15,27,6,6,29,29,22,19,22,16,15,30,26,16,12,27,8,24,25,5,8,28,29,21,28,14,5,5,7,26,9,16,8,8,22,15,24,25,24,3,22,21,25,24,9,30,32.txt
0,0,0,0,9,0,4,5,5,7,17,8,0,0,0,10,7,19,6,3,0,0,0,0,20,4,3,3,3,0,6,19,19,19,8,7,4,28,3,7,3,2,3,19,3,16,8,8,22,15,0,0,0,3,0,13,8,22,6,12,34.txt
0,0,0,0,9,0,4,5,5,7,17,8,0,0,0,10,7,19,6,3,0,0,0,0,20,4,0,0,0,0,6,20,20,19,0,7,4,28,3,0,0,2,19,19,20,24,0,15,30,29,0,0,0,9,0,0,0,0,0,0,36.txt
0,0,0,0,9,0,4,5,5,7,17,8,0,0,0,10,7,19,6,3,0,0,0,0,20,4,0,0,0,0,6,9,8,9,2,7,4,28,3,0,0,2,19,19,20,21,15,19,23,6,0,0,0,13,0,7,7,10,11,11,40.txt
0,0,0,0,13,0,4,5,5,7,17,8,8,16,28,10,7,19,6,3,6,5,5,13,0,4,3,3,3,22,2,2,2,2,25,0,0,0,0,2,3,10,3,3,3,7,3,6,7,5,28,17,26,3,3,2,2,6,2,2,41.txt
0,0,0,0,9,0,4,5,5,7,17,8,0,0,0,10,7,19,6,3,0,0,0,0,20,4,0,0,0,0,6,9,8,9,0,8,4,7,3,0,0,2,19,19,20,7,0,6,7,5,0,0,0,25,0,0,0,0,0,0,49.txt
0,0,0,0,9,0,4,5,5,7,17,8,0,0,0,10,7,19,6,3,0,0,0,0,20,4,3,3,3,0,6,9,8,9,25,7,4,28,3,7,17,2,27,19,25,7,3,6,7,5,0,0,0,8,0,5,5,4,24,6,53.txt
0,0,0,0,9,0,4,5,5,7,17,8,0,0,0,10,7,19,6,3,0,0,0,0,20,4,0,0,0,0,30,9,8,9,0,8,2,7,3,0,0,10,19,19,20,7,0,6,7,5,0,0,0,25,0,0,0,0,0,0,55.txt
0,0,0,0,9,0,4,5,5,7,17,8,6,4,20,10,7,19,6,11,21,17,27,13,12,4,11,5,8,1,21,6,6,28,12,10,25,10,1,22,15,15,27,19,25,4,15,7,4,22,1,1,10,28,9,10,18,20,8,29,57.txt
0,0,0,0,9,9,4,5,5,9,9,7,28,4,4,10,3,20,4,12,7,20,17,23,20,4,8,19,7,1,30,9,8,9,2,7,4,28,3,0,0,2,19,19,20,2,15,20,24,4,1,1,5,20,23,3,3,13,9,3,60.txt
0,0,11,5,1,0,26,17,19,7,17,8,10,0,12,25,7,19,6,1,0,0,0,0,1,23,8,5,8,0,21,25,26,28,22,16,29,15,30,27,0,2,19,7,20,16,23,27,16,15,0,0,0,29,0,13,18,29,18,13,61.txt
0,0,0,0,9,0,4,5,5,7,17,8,0,0,0,10,7,19,6,3,0,0,0,0,20,4,0,0,0,0,6,9,8,9,2,7,4,28,3,0,0,2,19,19,20,21,15,19,23,6,0,0,0,25,0,7,7,10,17,11,63.txt
0,0,13,29,22,0,7,1,24,7,17,8,6,8,20,11,7,26,6,11,21,17,27,13,30,9,11,5,8,22,27,29,9,17,8,21,21,23,9,21,3,15,3,8,3,13,8,8,16,26,27,17,26,3,27,13,16,28,12,29,65.txt
29,9,29,10,28,29,26,17,24,30,22,10,14,6,29,3,1,12,16,30,5,23,21,1,17,13,27,27,18,7,27,24,28,17,17,16,30,4,28,27,19,29,21,14,17,16,30,29,9,15,19,5,13,17,16,18,26,12,14,30,68.txt
0,0,0,0,9,0,4,5,5,7,17,8,0,0,0,10,7,19,6,3,0,0,0,0,20,4,0,0,0,0,6,9,8,9,0,7,4,28,3,0,0,2,19,19,20,7,0,6,7,5,0,0,0,25,0,0,0,0,0,0,71.txt
0,0,0,0,19,0,4,5,5,7,17,8,8,13,7,6,7,19,6,3,13,10,5,6,6,4,14,23,16,22,6,11,13,13,8,8,4,7,3,15,3,2,3,6,3,16,8,8,16,11,28,17,26,3,21,23,19,13,5,30,72.txt
0,0,0,0,9,0,4,5,5,7,9,7,8,4,7,10,3,20,26,3,29,1,3,23,20,4,0,0,0,1,6,11,13,13,0,7,2,28,3,0,15,0,15,19,14,7,0,6,7,5,1,1,5,25,23,0,0,0,0,0,76.txt
0,0,0,0,9,0,4,5,5,7,17,8,0,0,0,10,7,19,6,3,0,0,0,0,20,4,0,0,0,0,6,9,8,9,0,7,4,28,3,0,0,2,19,19,20,7,0,6,7,5,0,0,0,5,0,0,0,0,0,0,78.txt
0,0,0,0,9,0,4,5,5,7,17,8,8,13,28,10,7,19,6,3,6,5,5,6,20,4,3,3,3,22,6,2,30,2,25,7,4,28,3,7,14,3,26,13,30,24,3,15,30,28,28,17,25,8,21,5,5,7,24,9,81.txt
0,0,0,0,9,0,4,5,5,7,17,8,0,0,0,10,7,19,6,3,0,0,0,0,20,4,0,0,0,0,6,9,8,9,0,7,2,28,3,0,15,21,15,19,14,7,0,6,7,5,0,0,0,25,0,0,0,0,0,0,84.txt
0,0,0,0,9,0,4,5,5,7,17,8,8,2,7,10,7,19,6,3,2,2,2,2,20,4,0,0,0,22,6,2,29,2,0,8,2,7,3,0,15,21,27,19,25,7,0,6,7,5,30,18,3,13,21,0,0,0,0,0,86.txt
0,0,0,0,9,0,4,5,5,7,17,8,8,13,28,10,7,19,6,3,6,5,5,6,20,4,3,3,3,22,6,2,2,2,1,7,4,28,3,7,3,2,3,19,3,16,29,30,16,15,30,17,3,30,27,12,16,28,13,29,89.txt
0,0,0,0,9,0,4,5,5,7,17,8,0,0,0,10,7,19,6,3,0,0,0,0,20,4,0,0,0,0,6,9,8,9,0,7,4,28,3,0,0,2,19,19,20,7,0,6,7,5,0,0,0,25,0,0,0,0,0,0,90.txt
0,0,0,0,9,0,4,5,5,0,0,0,0,0,0,10,29,29,0,3,0,0,0,0,20,0,0,0,0,0,6,9,8,9,0,8,2,7,3,0,0,17,19,0,20,7,0,6,7,5,0,0,0,26,0,0,0,0,0,0,92.txt
29,0,11,29,1,11,7,1,1,13,1,1,6,4,4,11,14,16,26,1,29,13,17,23,7,4,20,28,1,8,17,6,6,21,15,21,21,23,1,8,0,2,19,19,20,16,28,24,11,20,1,1,10,20,13,10,13,20,9,27,95.txt
0,3,0,0,13,0,4,5,5,25,0,0,8,13,7,10,29,19,0,3,6,5,5,6,21,18,3,30,4,21,2,2,30,2,25,7,4,28,2,7,26,12,26,9,26,24,3,15,30,29,28,17,26,8,27,5,5,6,24,9,97.txt
0,0,0,0,9,0,4,5,5,7,17,8,0,0,0,10,7,19,6,3,0,0,0,0,20,4,0,0,0,0,6,9,8,9,1,7,4,28,3,0,0,2,19,19,20,16,24,27,1,15,0,0,0,13,0,23,3,13,3,18,98.txt
0,0,0,0,9,0,4,5,5,7,17,8,0,0,0,10,7,29,6,3,0,0,0,0,20,4,0,0,0,6,6,20,20,19,0,7,2,28,3,0,15,15,24,19,26,7,0,6,7,5,8,9,14,24,17,0,0,0,0,0,100.txt
0,0,0,0,9,0,4,5,5,7,17,8,0,0,0,10,7,19,6,3,0,0,0,0,20,4,0,0,0,0,6,9,8,9,0,7,4,28,3,0,0,2,19,19,20,7,0,6,7,5,0,0,0,24,0,0,0,0,0,0,102.txt
0,0,0,0,9,0,4,5,5,7,17,8,0,0,0,10,7,19,6,3,0,0,0,0,20,4,0,0,0,0,6,20,20,10,0,7,4,28,3,0,0,25,19,19,20,3,0,3,3,2,26,10,18,30,2,0,0,0,0,0,105.txt
0,0,0,0,9,0,4,5,5,7,17,8,0,0,0,10,7,19,6,3,0,0,0,0,20,4,0,0,0,0,6,9,8,9,0,7,4,28,3,0,0,2,19,19,20,7,0,6,7,5,0,0,0,25,0,0,0,0,0,0,108.txt
0,0,0,0,9,15,4,5,5,16,11,18,0,4,0,10,18,30,15,3,30,21,12,22,20,4,16,23,16,23,6,12,10,20,26,7,4,28,3,7,16,23,23,19,23,26,18,17,29,28,19,5,5,20,5,4,4,7,23,8,110.txt
0,0,0,0,9,0,4,5,5,7,11,18,6,21,20,10,3,20,4,11,0,0,0,0,10,4,17,5,8,1,22,5,5,16,2,1,1,1,11,16,0,15,19,19,20,21,15,19,23,1,1,1,4,12,4,7,7,10,8,11,112.txt
16,3,16,20,9,2,29,19,2,2,30,30,8,13,28,19,12,21,25,19,6,5,5,6,9,7,3,3,3,20,6,2,30,2,25,6,10,8,12,26,2,10,2,30,2,27,3,18,30,28,27,17,25,11,21,5,5,7,24,9,114.txt
16,3,20,2,13,2,21,19,17,2,29,30,8,13,28,19,22,21,24,18,6,5,5,6,20,22,3,24,17,19,2,2,2,2,25,7,4,28,3,7,17,12,24,12,28,26,3,14,29,28,0,0,0,30,0,5,5,4,24,6,116.txt
0,0,0,0,9,0,4,5,5,7,17,8,0,0,0,10,7,19,6,3,0,0,0,0,18,4,0,0,0,0,6,9,8,9,1,14,23,14,8,22,0,15,19,19,20,13,29,30,17,27,0,0,0,24,0,18,22,3,13,30,118.txt
21,9,29,29,28,30,10,12,30,16,1,1,20,28,4,30,1,15,15,12,23,22,19,1,7,11,19,16,19,23,8,18,7,4,30,12,22,12,22,14,4,19,20,14,17,16,1,30,10,20,5,5,12,20,13,16,28,13,18,22,121.txt
0,0,0,0,9,0,4,5,5,7,17,8,0,0,0,10,7,19,6,3,0,0,0,0,20,4,0,0,0,0,6,9,8,9,17,7,4,28,3,0,15,2,28,19,26,9,22,24,9,10,0,0,0,9,0,8,15,26,6,28,123.txt
0,0,0,0,9,0,4,5,5,7,17,8,0,0,0,10,7,19,6,3,0,0,0,0,20,4,3,3,3,0,6,20,20,19,25,7,4,28,3,7,0,12,19,10,20,24,3,15,30,29,0,0,0,13,0,5,5,6,24,9,124.txt
0,0,0,0,9,0,4,5,5,7,17,8,0,0,0,10,7,19,6,3,0,0,0,0,20,4,0,0,0,0,6,9,8,9,0,8,4,7,3,0,0,2,19,19,20,7,0,6,7,5,0,0,0,25,0,0,0,0,0,0,126.txt
0,0,0,0,9,0,4,5,5,7,17,8,0,0,0,10,7,19,6,3,0,0,0,0,20,4,0,0,0,0,6,9,8,9,0,7,4,28,3,0,0,2,19,19,20,7,0,6,7,5,0,0,0,8,0,0,0,0,0,0,128.txt
0,0,0,0,9,0,4,5,5,25,0,0,0,0,0,10,30,29,0,3,0,0,0,0,21,0,0,0,0,0,6,9,8,9,2,7,2,28,2,0,0,17,19,0,20,2,15,7,24,4,16,16,27,26,2,29,22,13,9,22,130.txt
16,3,16,20,9,2,21,2,17,19,30,30,0,0,0,20,12,22,25,19,25,28,25,28,20,6,3,23,16,17,6,20,20,19,3,8,2,7,3,25,25,10,19,9,20,24,3,15,30,29,0,0,0,9,0,5,5,2,24,8,132.txt
0,0,0,0,9,0,4,5,5,7,17,8,0,0,0,10,7,19,6,3,0,0,0,0,12,4,0,0,0,0,21,6,6,28,2,9,1,9,1,21,0,2,19,19,20,21,15,19,23,4,0,0,0,12,0,7,7,10,18,11,135.txt
0,0,0,0,9,9,14,6,0,4,1,1,8,23,7,0,3,20,26,26,29,14,3,23,21,17,0,0,0,1,6,11,13,13,0,2,8,30,5,0,3,17,3,29,3,0,0,0,0,5,1,1,5,26,24,0,0,0,0,0,137.txt
0,0,0,0,9,0,4,5,5,7,17,8,11,4,14,10,7,19,6,12,6,5,5,2,1,4,11,19,7,8,29,25,26,17,22,17,29,21,26,29,3,12,3,19,3,16,1,29,20,15,1,28,6,30,16,29,3,13,9,22,141.txt
0,0,0,0,9,0,4,5,5,7,17,8,0,0,0,10,7,19,6,3,0,0,0,0,20,4,14,2,2,0,6,9,8,9,22,3,4,3,3,5,0,2,19,19,20,16,10,10,21,9,0,0,0,12,0,13,11,11,26,24,144.txt
0,0,13,10,4,21,26,17,30,16,26,26,23,28,19,26,1,14,15,30,10,21,12,1,28,24,23,5,8,6,27,18,7,30,30,14,23,14,23,22,18,21,25,8,30,13,29,30,10,26,19,5,14,24,17,8,14,27,13,29,145.txt
0,0,0,0,9,0,4,5,5,7,17,8,0,0,0,10,7,19,6,3,0,0,0,0,20,4,0,0,0,0,6,9,8,9,0,8,4,7,3,0,0,2,19,19,20,7,0,6,7,5,0,0,0,25,0,0,0,0,0,0,147.txt
0,0,0,0,9,0,4,5,5,7,17,8,0,0,0,10,7,19,6,3,0,0,0,0,20,4,3,3,3,0,6,20,20,19,25,7,4,28,3,7,0,12,19,19,20,24,3,15,30,2,0,0,0,8,0,5,5,7,24,9,149.txt
0,0,0,0,9,0,4,5,5,7,17,8,0,0,0,10,7,19,6,3,0,0,0,0,7,4,0,0,0,0,17,25,26,21,13,17,29,18,30,8,0,2,19,19,20,16,22,27,9,15,0,0,0,8,0,7,7,10,9,11,151.txt
0,0,13,10,4,5,7,17,24,9,22,21,10,4,18,25,17,16,30,30,30,21,21,22,20,4,5,18,19,8,6,9,8,9,0,8,2,7,3,0,15,18,30,19,23,7,0,6,7,5,19,5,10,20,17,0,0,0,0,0,154.txt
0,0,0,0,9,0,4,5,5,7,17,8,0,0,0,10,7,19,6,3,0,0,0,0,20,4,0,0,0,0,6,9,8,9,0,7,4,28,3,0,0,2,19,19,20,7,0,6,7,5,0,0,0,25,0,0,0,0,0,0,156.txt
0,0,0,0,9,0,4,5,5,7,17,8,8,16,7,10,7,19,6,3,14,17,9,9,30,4,3,3,3,22,6,2,29,2,22,9,11,9,1,21,15,2,16,19,15,16,28,30,16,15,27,27,25,29,21,13,18,22,8,13,158.txt
0,0,0,0,9,0,4,5,5,7,17,8,0,0,0,10,7,19,6,3,0,0,0,0,20,4,3,3,3,0,6,20,20,19,25,7,4,28,3,7,15,12,26,19,26,24,7,15,30,29,0,0,0,13,0,2,2,6,2,8,160.txt
0,0,0,0,9,0,4,5,5,7,17,8,0,0,0,10,7,29,6,3,0,0,0,0,20,4,0,0,0,0,6,9,8,9,0,8,2,7,3,0,3,10,3,19,3,7,0,6,7,5,0,0,0,30,0,0,0,0,0,0,161.txt
0,0,0,0,9,0,4,5,5,7,17,8,0,0,0,10,7,19,6,3,0,0,0,0,20,4,3,3,3,0,6,9,8,9,22,7,4,28,3,7,3,2,3,19,3,16,10,10,18,9,0,0,0,29,0,12,13,29,3,29,163.txt
0,0,0,0,9,0,4,5,5,7,17,8,0,0,0,10,7,26,6,3,0,0,0,0,20,4,0,0,0,8,6,9,8,9,2,8,2,7,3,0,0,21,19,19,20,2,15,19,2,4,1,1,10,25,8,3,3,13,9,3,165.txt
0,0,0,0,9,0,4,5,5,7,17,8,6,0,4,10,7,19,6,29,0,0,0,0,7,1,8,5,8,0,17,6,6,21,2,9,12,9,1,8,0,2,19,18,20,21,15,19,23,4,0,0,0,25,0,10,8,20,9,12,167.txt
0,0,0,0,9,0,4,5,5,7,17,8,0,0,0,10,7,19,6,3,0,0,0,0,7,4,0,0,0,0,17,6,6,21,2,9,1,9,10,8,0,2,19,19,20,21,15,19,23,4,0,0,0,25,0,7,7,10,18,11,169.txt
0,0,0,0,9,0,4,5,5,25,0,0,0,0,0,10,30,19,0,3,0,0,0,0,21,0,0,0,0,0,6,9,8,9,0,7,2,28,2,0,3,10,3,0,3,7,0,6,7,5,0,0,0,26,0,0,0,0,0,0,171.txt
0,0,0,0,9,0,4,5,5,7,17,8,5,7,2,10,7,26,6,3,14,17,9,24,30,4,16,2,2,29,29,16,16,17,22,28,29,15,13,27,3,15,3,19,3,13,29,30,21,26,26,10,18,30,2,12,18,29,18,29,173.txt
0,0,0,0,9,0,14,9,0,25,0,0,8,13,11,12,30,26,0,3,6,5,5,6,27,18,0,0,0,22,6,2,2,2,1,7,2,28,5,0,12,13,13,29,13,13,30,30,28,26,30,27,3,8,27,7,7,10,9,11,175.txt
0,0,0,0,9,0,4,5,5,7,17,8,6,2,20,10,7,26,6,12,6,5,5,2,30,24,11,18,7,22,21,30,9,28,22,1,14,1,23,22,3,21,3,24,3,13,22,22,16,26,0,0,0,13,0,23,22,13,16,22,177.txt
0,0,0,0,9,0,4,5,5,7,9,7,28,4,5,10,3,20,4,13,7,20,3,23,10,24,5,7,19,1,22,30,9,16,12,1,1,1,23,16,15,21,27,7,25,21,15,7,23,27,1,1,10,13,9,3,3,13,9,3,179.txt
0,0,0,0,9,9,14,9,0,4,9,7,8,4,7,0,3,20,26,3,29,1,3,23,21,0,0,0,0,8,6,2,2,2,12,8,2,7,4,0,3,21,3,27,3,2,15,7,24,4,5,20,4,26,4,29,28,13,12,22,182.txt
0,0,0,0,9,0,4,5,5,7,17,8,0,0,0,10,7,19,6,3,0,0,0,0,20,4,0,0,0,0,6,9,8,9,2,7,4,28,3,0,0,2,19,19,20,2,15,20,2,4,0,0,0,25,0,23,3,13,9,3,184.txt
0,0,0,0,9,0,4,5,5,7,17,8,0,0,0,10,7,19,6,3,0,0,0,0,20,4,0,0,0,0,6,9,8,9,0,7,4,28,3,0,0,2,19,19,20,7,0,6,7,5,0,0,0,25,0,0,0,0,0,0,188.txt
0,0,0,0,9,0,4,5,5,7,17,8,0,0,0,10,7,19,6,3,0,0,0,0,20,4,3,3,3,0,6,9,8,9,25,7,4,28,3,7,3,2,3,19,3,7,3,6,7,5,0,0,0,8,0,5,5,7,24,9,189.txt
0,0,0,0,9,0,4,5,5,7,17,8,8,13,28,10,7,19,6,3,6,5,5,6,20,4,3,3,3,22,6,2,2,2,15,7,4,28,3,7,17,3,27,11,25,16,28,28,22,15,0,0,0,8,0,12,12,28,18,25,191.txt
29,17,1,10,22,29,7,17,24,11,22,25,23,4,19,26,6,6,5,10,23,4,21,22,19,21,27,17,24,6,27,22,22,30,11,28,17,24,14,27,30,22,20,21,18,13,9,9,12,26,19,5,11,23,19,15,19,17,21,15,194.txt
0,0,0,0,9,0,4,5,5,7,17,8,0,0,0,10,7,19,6,3,0,0,0,0,20,4,0,0,0,7,6,9,8,9,2,7,4,28,3,0,0,2,19,19,20,5,15,19,5,4,22,19,4,25,4,17,21,30,6,15,197.txt
0,0,0,0,0,0,4,5,5,25,27,24,23,4,19,10,14,16,9,30,30,20,12,15,10,0,5,16,19,1,22,16,16,16,22,4,16,19,30,22,17,17,27,29,25,13,29,30,25,26,1,1,10,12,8,23,25,13,18,16,199.txt
0,0,0,0,9,0,4,5,5,7,17,8,0,0,0,10,7,19,6,3,0,0,0,0,20,4,0,0,0,0,6,9,8,9,0,7,4,28,3,0,0,2,19,19,20,7,0,6,7,5,0,0,0,25,0,0,0,0,0,0,203.txt
0,0,0,0,9,0,4,5,5,7,17,8,0,0,0,10,7,19,6,3,0,0,0,0,20,4,0,0,0,0,6,9,8,9,0,7,4,28,3,0,0,2,19,19,20,7,0,6,7,5,0,0,0,25,0,0,0,0,0,0,204.txt
0,0,0,0,9,0,4,5,5,7,17,8,0,0,0,10,7,19,6,3,0,0,0,0,20,4,3,3,3,0,6,9,8,9,15,7,4,28,3,7,3,2,3,19,3,16,1,1,22,15,0,0,0,5,0,12,8,22,18,12,209.txt
0,0,0,0,9,0,4,5,5,7,17,8,0,0,0,10,7,29,6,3,0,0,0,0,20,4,0,0,0,0,6,9,8,9,0,8,2,7,3,0,0,10,19,19,20,7,0,6,7,5,0,0,0,9,0,0,0,0,0,0,210.txt
0,0,0,0,9,0,4,5,5,7,17,8,0,0,0,10,7,19,6,3,0,0,0,0,20,4,0,0,0,0,6,9,8,9,0,7,4,28,3,0,0,2,19,19,20,7,0,6,7,5,16,10,18,25,7,0,0,0,0,0,212.txt
0,0,0,0,9,0,4,5,5,7,17,8,0,0,0,10,7,19,6,3,0,0,0,0,10,4,3,24,17,0,22,27,16,16,22,16,30,18,13,29,3,27,3,19,3,16,10,10,20,15,26,10,18,30,2,12,16,22,9,29,214.txt
29,0,11,4,1,14,7,17,1,13,26,13,19,4,19,3,17,24,13,8,10,21,12,16,19,21,8,13,11,12,26,22,22,30,19,17,17,21,14,29,19,30,20,14,17,9,30,1,13,10,6,6,9,22,11,6,6,16,4,10,217.txt
0,0,0,0,9,0,4,5,5,0,0,0,8,4,7,10,29,29,0,3,6,5,5,2,21,0,0,0,0,1,7,2,2,2,25,19,8,17,2,25,11,10,9,0,7,7,0,6,7,0,1,28,5,28,5,2,2,4,2,2,219.txt
0,0,0,0,9,0,4,5,5,7,17,8,0,0,0,10,7,19,6,3,0,0,0,0,20,4,0,0,0,0,6,9,8,9,0,7,4,28,6,0,0,2,19,19,20,7,0,6,7,5,0,0,0,25,0,0,0,0,0,0,220.txt
16,3,20,2,13,2,2,19,2,2,17,8,25,2,11,17,7,19,6,17,2,15,2,2,0,28,3,3,3,2,30,2,2,2,25,0,0,0,0,2,17,10,16,12,15,3,3,3,3,2,30,3,3,13,3,5,5,4,24,2,222.txt
0,0,0,0,9,0,4,5,5,7,17,8,0,0,0,10,7,19,6,3,0,0,0,0,20,4,0,0,0,0,6,9,8,9,0,8,4,7,3,0,0,2,19,19,20,7,0,6,7,5,0,0,0,13,0,0,0,0,0,0,225.txt
0,0,0,0,9,0,4,5,5,7,17,8,0,0,0,10,7,19,6,3,0,0,0,0,20,4,0,0,0,0,6,9,8,9,0,7,4,28,3,0,0,2,19,19,20,7,0,6,7,5,0,0,0,25,0,0,0,0,0,0,227.txt
0,0,0,0,9,0,4,5,5,7,17,8,0,0,0,10,7,19,6,3,0,0,0,0,20,4,0,0,0,0,6,9,8,9,0,7,4,28,3,0,0,2,19,19,20,7,0,6,7,5,0,0,0,13,0,0,0,0,0,0,229.txt
0,0,0,0,9,0,14,6,16,22,0,0,0,0,0,12,29,29,0,3,0,0,0,0,0,0,3,3,3,0,30,20,20,10,25,0,0,0,0,2,26,10,27,29,25,7,3,6,7,5,0,0,0,13,0,4,4,4,23,2,231.txt
0,0,13,29,3,9,26,1,25,9,1,1,6,21,4,11,3,20,4,29,10,23,17,23,7,23,8,5,8,1,17,5,5,21,2,1,1,1,23,8,0,2,19,7,20,21,15,19,23,26,1,1,10,17,13,10,11,20,6,24,236.txt
0,0,0,0,9,0,4,5,5,7,17,8,0,0,0,10,7,19,6,3,0,0,0,0,20,4,3,3,3,0,6,21,21,19,25,7,4,28,3,7,3,3,3,19,3,24,3,15,30,28,0,0,0,30,0,5,5,7,24,9,241.txt
0,0,0,0,9,0,4,5,5,7,27,20,0,23,0,10,3,20,4,3,7,20,3,23,20,4,0,0,0,1,6,9,8,9,0,8,2,7,3,0,25,10,19,19,20,24,0,15,30,2,1,1,4,30,4,0,0,0,0,0,242.txt
0,0,0,0,9,0,4,5,5,7,17,8,0,0,0,10,7,19,6,3,0,0,0,0,17,4,0,0,0,0,27,30,9,17,17,9,23,9,17,21,3,11,3,19,3,13,30,30,22,26,0,0,0,8,0,7,7,10,9,11,245.txt
11,3,17,2,13,2,2,19,2,21,30,2,0,0,0,2,12,23,25,19,24,27,24,27,9,28,13,2,2,16,2,19,19,10,20,6,10,8,12,26,17,21,16,12,15,13,29,29,1,26,26,10,18,30,2,12,18,29,18,13,247.txt
0,3,0,0,13,0,4,5,5,7,17,8,8,13,11,10,7,19,6,2,6,5,5,6,20,7,3,3,3,22,2,11,13,13,25,7,4,28,3,7,17,12,26,10,26,24,18,15,30,29,28,17,26,8,27,2,2,6,2,9,249.txt
16,3,16,27,9,2,21,23,17,2,30,30,0,0,0,19,22,22,24,19,25,28,25,28,21,7,3,10,10,17,6,21,21,19,25,2,4,2,4,7,6,3,4,9,4,24,3,15,30,29,0,0,0,8,0,5,5,6,24,9,250.txt
0,0,0,0,9,0,4,5,5,7,17,8,0,0,0,10,7,19,6,3,0,0,0,0,20,4,0,0,0,0,6,20,20,19,0,7,4,28,3,0,0,2,19,19,20,7,0,6,7,5,0,0,0,9,0,0,0,0,0,0,252.txt
29,0,13,7,4,8,7,17,26,8,26,10,23,4,14,13,25,16,29,1,10,22,12,22,30,11,11,7,18,1,29,27,16,17,22,28,29,20,26,20,16,2,23,25,23,16,1,30,1,20,1,28,6,20,13,16,3,13,18,18,256.txt
0,0,0,0,9,0,4,5,5,7,17,8,0,0,0,10,7,19,6,3,0,0,0,0,20,4,0,0,0,0,30,9,8,9,0,7,4,28,3,0,0,12,19,19,20,3,0,3,3,2,0,0,0,8,0,0,0,0,0,0,258.txt
0,0,0,0,9,0,4,5,5,7,17,8,0,0,0,10,7,19,6,3,0,0,0,0,20,4,0,0,0,0,6,9,8,9,2,7,4,28,3,0,0,2,19,19,20,29,15,19,24,4,0,0,0,25,0,23,3,12,9,22,260.txt
0,0,0,0,9,0,4,5,5,7,17,8,8,16,7,10,7,19,6,3,14,15,9,24,20,4,0,0,0,22,6,2,2,2,0,8,2,7,3,0,3,10,3,19,3,7,0,6,7,5,30,17,3,3,3,0,0,0,0,0,261.txt
0,0,0,0,9,0,4,5,5,7,17,8,0,4,0,10,7,29,6,3,0,0,0,0,20,4,0,0,0,1,6,9,8,9,0,8,2,7,3,0,0,17,19,19,20,7,0,6,7,5,1,1,5,25,5,0,0,0,0,0,264.txt
0,0,0,0,9,0,4,5,5,7,17,8,0,0,0,10,7,19,6,3,0,0,0,0,20,4,0,0,0,0,6,9,8,9,0,8,4,7,3,0,0,2,19,19,20,7,0,6,7,5,0,0,0,25,0,0,0,0,0,0,269.txt
0,0,0,0,9,0,4,5,5,24,0,0,6,4,20,10,0,26,0,30,0,0,0,0,12,19,17,18,19,23,27,29,9,30,12,14,23,14,23,22,25,21,19,27,20,2,13,7,24,1,5,22,14,27,17,17,28,13,13,22,272.txt
0,0,0,0,9,0,4,5,5,7,14,20,0,4,0,10,3,20,26,3,29,1,17,23,20,4,0,0,0,8,6,9,8,9,0,7,4,28,3,0,0,2,19,19,20,7,0,6,7,5,1,1,10,25,16,0,0,0,0,0,274.txt
0,0,0,0,10,0,4,5,5,7,12,19,25,15,13,4,5,5,3,23,15,17,10,12,9,29,22,30,4,29,15,15,11,15,20,6,10,8,12,26,26,23,16,3,15,8,19,30,1,13,20,24,25,5,26,12,13,29,18,27,276.txt
0,0,0,0,9,0,4,5,5,7,14,20,0,4,0,10,17,1,29,3,10,20,18,15,20,4,3,3,3,1,6,20,20,10,15,7,4,28,3,7,17,12,27,19,25,16,1,27,11,9,1,28,6,8,16,3,3,13,18,3,280.txt
0,0,0,0,9,0,4,5,5,7,17,8,0,0,0,10,7,29,6,3,0,0,0,0,20,4,0,0,0,0,6,9,8,9,0,3,2,3,3,0,0,10,19,19,20,7,0,6,7,5,0,0,0,25,0,0,0,0,0,0,282.txt
0,0,0,0,13,0,4,5,5,7,17,8,8,13,7,10,7,19,6,3,6,5,5,6,20,4,3,30,4,22,6,2,30,2,25,7,4,28,3,7,3,12,3,19,3,7,3,6,7,5,28,17,26,8,27,2,2,6,2,9,283.txt
0,0,0,0,9,0,4,5,5,7,17,8,0,0,0,10,7,19,6,3,0,0,0,0,3,4,3,3,3,0,3,25,26,3,15,4,16,18,26,19,17,27,27,11,25,16,29,1,22,15,15,10,18,8,2,12,12,29,9,25,284.txt
0,0,0,0,9,0,4,5,5,7,17,8,0,0,0,10,7,19,6,3,0,0,0,0,20,4,16,24,17,0,6,20,20,19,22,8,4,7,3,15,3,12,3,19,3,16,29,29,18,15,0,0,0,30,0,13,18,28,18,29,286.txt
0,0,0,0,9,0,4,5,5,7,17,8,8,13,7,10,7,19,6,3,14,2,9,6,20,4,0,0,0,22,6,2,29,2,0,7,4,28,3,0,3,2,3,19,3,7,0,6,7,5,28,27,26,30,21,0,0,0,0,0,288.txt
0,3,0,0,9,0,4,5,5,7,17,8,0,0,0,10,7,29,6,3,0,0,0,0,10,4,2,24,17,0,22,24,28,16,20,16,29,25,24,20,0,15,19,19,20,13,22,1,20,26,2,10,18,29,2,13,11,28,9,24,290.txt
0,0,0,0,9,0,4,5,5,7,17,8,8,13,7,10,7,19,6,3,28,2,10,6,20,4,3,3,3,22,6,2,2,2,25,7,4,28,3,7,12,24,13,2,13,24,3,15,30,28,28,17,26,28,27,2,2,7,2,6,293.txt
0,0,0,0,0,0,4,5,5,7,17,8,0,0,0,10,7,19,6,3,0,0,0,0,0,4,3,3,3,0,30,20,20,10,25,0,0,0,0,2,0,2,19,3,20,7,3,6,7,5,0,0,0,8,0,2,2,4,2,2,295.txt
29,23,11,4,1,11,26,26,1,13,13,13,13,24,15,27,1,13,8,10,19,26,22,1,23,10,30,26,28,26,23,14,17,8,15,21,21,23,22,10,5,5,10,5,9,16,28,28,22,11,24,14,24,20,22,18,19,3,21,30,297.txt
0,0,0,0,9,0,4,5,5,7,17,8,0,0,0,10,7,19,6,3,0,0,0,0,20,4,3,24,17,0,6,20,20,19,25,7,4,28,3,15,3,2,3,19,3,7,3,6,7,5,0,0,0,29,0,5,5,7,24,6,300.txt
0,0,0,0,9,0,4,5,5,7,17,8,0,0,0,10,7,19,6,3,0,0,0,0,20,4,0,0,0,0,6,9,8,9,0,7,4,28,3,0,0,2,19,19,20,7,0,6,7,5,0,0,0,25,0,0,0,0,0,0,303.txt
0,0,0,0,9,0,4,5,5,7,17,8,11,0,14,10,7,19,6,1,0,0,0,0,11,4,11,5,8,0,14,16,16,18,22,16,28,4,30,27,0,2,19,19,20,16,24,30,18,9,2,16,27,29,2,8,8,11,18,12,305.txt
0,0,0,0,13,0,4,5,5,7,17,8,6,2,4,10,7,19,6,1,2,17,2,2,30,4,18,25,22,1,13,30,9,17,8,1,1,1,1,16,3,21,3,19,3,13,8,8,20,26,1,28,6,3,9,12,16,28,18,13,307.txt
0,0,0,0,15,0,14,9,16,0,0,0,8,13,7,0,30,29,0,3,6,5,5,6,21,18,14,23,16,22,6,2,2,2,25,8,2,7,2,25,17,15,28,0,26,7,3,6,7,5,30,17,3,28,27,5,5,6,24,9,311.txt
0,0,0,0,9,0,4,5,5,7,1,1,6,4,20,10,6,6,26,12,29,13,1,21,1,4,11,5,8,1,21,6,6,28,8,1,14,1,23,22,0,2,19,19,20,16,8,8,16,15,1,29,10,3,16,13,11,28,12,24,313.txt
0,0,0,0,9,0,4,5,5,7,17,8,0,0,0,10,7,19,6,3,0,0,0,0,20,4,3,3,3,0,6,9,8,9,25,7,2,28,3,15,0,10,19,19,20,7,18,6,7,5,0,0,0,3,0,2,2,6,2,9,318.txt
0,0,0,0,9,9,4,5,5,4,1,1,0,4,0,10,3,20,26,3,29,14,3,23,20,4,0,0,0,1,6,9,8,9,0,8,8,7,3,0,25,17,19,19,20,7,0,6,7,5,1,1,4,25,4,0,0,0,0,0,320.txt
29,23,11,9,1,11,7,4,1,13,13,13,13,4,23,9,14,24,12,4,19,16,22,20,26,10,18,25,22,7,4,6,6,5,17,21,21,23,17,11,5,5,7,5,9,9,30,30,9,10,1,1,19,17,15,6,6,19,4,10,322.txt
29,23,11,9,1,11,7,4,1,13,13,13,13,4,23,9,14,24,12,4,19,16,22,20,26,10,18,25,22,7,4,6,6,5,17,21,21,23,17,11,5,5,7,5,9,9,30,30,9,10,1,1,19,17,15,6,6,19,4,10,323.txt
0,0,13,10,4,14,7,17,30,16,27,24,23,4,19,26,14,10,26,1,29,13,12,22,30,4,11,7,19,1,25,16,16,17,22,17,28,20,30,27,12,18,13,19,22,13,1,30,16,4,1,1,10,20,9,3,3,13,18,3,324.txt
0,0,0,0,9,0,4,5,5,7,17,8,8,13,28,10,7,19,6,3,28,15,10,6,20,4,3,3,3,22,6,2,30,2,25,7,4,28,3,7,11,2,13,19,7,7,3,6,7,5,28,17,26,8,21,2,2,6,2,9,326.txt
0,0,0,0,13,0,4,5,5,7,17,8,17,13,13,10,7,19,6,3,0,0,0,0,20,4,3,3,3,22,6,2,2,2,25,7,4,28,3,7,3,2,3,19,3,7,3,6,7,5,2,10,18,3,2,5,5,4,24,2,328.txt
0,0,0,0,9,0,14,9,0,25,0,0,8,2,7,12,0,29,0,3,6,5,5,2,21,0,0,0,0,22,6,2,30,2,0,7,2,28,4,0,6,10,4,27,4,7,0,6,7,5,30,18,3,26,21,0,0,0,0,0,329.txt
0,0,0,0,9,0,4,5,5,7,17,8,0,0,0,10,7,19,6,3,0,0,0,0,20,4,0,0,0,1,6,9,8,9,0,7,4,28,3,0,0,2,19,19,20,7,0,6,7,5,1,28,4,12,4,0,0,0,0,0,333.txt
0,0,16,2,9,2,21,2,17,2,17,8,8,2,7,17,7,19,6,3,2,17,2,2,10,4,14,24,17,2,22,30,9,16,22,1,1,1,23,16,17,21,27,11,25,13,29,30,20,27,30,17,3,13,21,23,3,13,18,16,335.txt
0,0,0,0,9,0,4,5,5,7,17,8,0,0,0,10,7,19,6,3,0,0,0,0,20,4,0,0,0,0,30,9,8,9,0,7,4,28,3,0,0,2,19,19,20,7,0,6,7,5,0,0,0,13,0,0,0,0,0,0,337.txt
0,3,22,2,13,2,2,19,2,21,17,8,8,13,28,19,7,19,6,18,15,15,10,6,9,28,28,30,4,20,2,11,14,13,24,6,10,8,12,26,12,24,14,12,13,26,18,17,29,28,26,10,18,7,6,27,5,7,29,7,341.txt
0,0,0,0,9,0,4,5,5,7,17,8,17,13,28,10,7,19,6,3,21,8,27,7,15,4,3,3,3,22,3,25,26,22,15,28,30,25,26,19,3,25,3,19,3,16,28,28,22,15,26,10,18,8,2,12,13,28,13,25,342.txt
0,0,0,0,9,0,4,5,5,7,17,8,0,0,0,10,7,19,6,3,0,0,0,0,20,4,0,0,0,0,6,9,8,9,0,7,4,28,3,0,0,2,19,19,20,27,0,18,30,28,0,0,0,24,0,0,0,0,0,0,344.txt
0,0,0,0,9,0,4,5,5,7,17,8,0,0,0,10,7,19,6,3,0,0,0,0,20,4,0,0,0,0,6,9,8,9,2,7,4,28,3,0,0,2,19,19,20,21,15,20,23,4,0,0,0,25,0,10,12,20,9,25,347.txt
0,0,0,0,9,0,4,5,5,7,17,8,0,0,0,10,7,19,6,3,0,0,0,0,20,4,0,0,0,0,6,9,8,9,25,7,4,28,3,7,0,2,19,19,20,7,0,6,7,5,0,0,0,5,0,2,2,4,2,2,349.txt
0,0,0,0,9,0,4,5,5,7,4,4,0,0,0,10,11,18,20,3,0,0,0,0,1,4,16,2,2,15,6,9,8,9,21,28,30,25,30,27,0,2,19,19,20,16,1,27,18,13,26,10,18,30,2,12,18,22,18,29,352.txt
0,0,0,0,9,0,4,5,5,7,17,8,0,0,0,10,7,19,6,3,0,0,0,0,20,4,0,0,0,0,6,9,8,9,0,7,4,28,3,0,0,2,19,19,20,7,0,6,7,5,0,0,0,25,0,0,0,0,0,0,354.txt
0,0,0,0,9,0,4,5,5,7,17,8,0,0,0,10,7,19,6,3,0,0,0,0,20,4,0,0,0,0,6,9,8,9,0,7,4,28,3,0,0,2,19,19,20,24,0,15,30,28,0,0,0,13,0,0,0,0,0,0,358.txt
0,0,0,0,9,0,4,5,5,7,17,8,8,2,7,10,7,29,6,3,6,5,5,2,20,4,0,0,0,22,6,2,29,2,0,8,2,7,3,0,6,10,4,19,4,7,0,6,7,5,30,27,3,12,21,0,0,0,0,0,360.txt
0,0,0,0,9,0,4,5,5,7,17,8,0,0,0,10,7,19,6,3,0,0,0,0,20,4,3,3,3,0,6,19,19,19,25,7,4,28,3,7,3,2,3,19,3,27,3,18,30,28,0,0,0,8,0,5,5,7,24,9,362.txt
0,0,0,0,9,0,4,5,5,7,17,8,8,16,7,10,7,19,6,3,21,2,27,13,20,4,3,3,3,22,6,2,30,2,25,7,4,28,3,7,3,2,3,19,3,7,3,6,7,5,0,0,0,8,0,5,5,7,24,2,364.txt
0,0,0,0,9,0,4,5,5,7,17,8,25,2,7,10,7,29,6,3,2,2,2,2,20,4,3,3,3,29,30,2,2,2,25,8,2,7,3,15,3,10,3,19,3,7,3,6,7,5,30,3,3,13,3,5,5,4,24,2,365.txt
0,0,0,0,9,0,4,5,5,7,17,8,8,13,7,10,7,29,6,3,6,5,5,6,20,4,3,3,3,22,6,2,30,2,17,7,2,28,3,7,27,17,26,19,26,13,30,30,9,4,30,27,3,8,21,28,24,30,9,17,368.txt
0,0,0,0,9,0,4,5,5,7,17,8,0,0,0,10,7,19,6,3,0,0,0,0,12,4,0,0,0,0,21,18,7,28,17,9,20,9,9,21,0,2,19,19,20,16,20,27,9,15,0,0,0,25,0,8,11,26,6,24,369.txt
0,0,0,0,9,0,4,5,5,7,17,8,0,0,0,10,7,19,6,3,0,0,0,0,20,4,0,0,0,0,6,9,8,9,0,7,4,28,3,0,0,2,19,19,20,7,0,6,7,5,0,0,0,13,0,0,0,0,0,0,371.txt
29,23,1,4,1,11,26,4,1,11,6,13,13,25,15,26,1,13,12,10,19,16,12,1,17,1,15,11,14,9,27,23,23,29,17,28,18,18,15,13,9,6,7,5,11,13,28,1,22,26,7,7,11,23,12,30,19,13,20,30,375.txt
0,0,0,0,9,0,4,5,5,7,17,8,0,0,0,10,7,19,6,3,0,0,0,0,20,4,3,3,3,0,6,20,20,19,25,7,4,28,3,7,26,12,24,19,24,7,3,6,7,5,0,0,0,5,0,2,2,4,2,6,377.txt
0,0,0,0,9,0,4,5,5,7,17,8,0,0,0,10,7,19,6,3,0,0,0,0,12,4,0,0,0,0,6,9,8,9,2,9,1,9,8,16,0,21,19,19,20,21,15,19,23,1,0,0,0,25,0,7,7,10,8,11,380.txt
29,25,1,29,28,11,7,13,26,4,19,16,26,24,9,1,14,13,26,22,5,13,1,16,13,30,26,14,11,23,24,6,6,8,16,27,20,11,1,30,5,5,7,8,9,10,28,24,9,11,23,5,13,23,16,18,22,18,16,22,382.txt
0,0,13,10,4,12,7,17,30,3,26,23,3,4,8,26,18,10,29,13,30,21,12,22,10,8,17,7,19,8,22,24,25,16,22,25,16,19,24,20,16,21,23,8,23,13,1,30,1,26,19,5,6,20,17,29,3,13,18,22,385.txt
30,9,29,10,28,30,25,8,30,16,26,25,23,28,19,30,1,15,14,10,22,4,12,1,14,11,26,7,24,23,8,18,7,6,16,12,20,12,22,11,19,28,20,8,17,14,28,1,12,13,7,7,11,17,12,15,28,17,15,15,386.txt
0,0,0,0,9,0,4,5,5,7,17,8,0,0,0,10,7,19,6,3,0,0,0,0,20,4,0,0,0,0,6,9,8,9,0,7,26,28,3,0,3,0,3,19,3,7,0,6,7,5,0,0,0,25,0,0,0,0,0,0,387.txt
0,0,0,0,9,0,4,5,5,7,17,8,0,0,0,10,7,19,6,3,0,0,0,0,20,4,14,22,15,0,6,9,8,9,22,7,4,28,3,7,0,12,19,19,20,16,22,28,16,15,0,0,0,29,0,13,16,22,6,29,391.txt
0,0,0,0,9,0,4,5,5,7,17,8,0,0,0,10,7,19,6,3,0,0,0,0,0,4,13,2,2,0,6,20,20,10,25,0,0,0,0,2,0,12,19,19,20,3,3,3,3,2,0,0,0,30,0,2,2,4,2,2,394.txt
0,0,0,0,13,0,4,5,5,7,17,8,2,16,13,10,7,19,6,3,15,8,10,8,9,4,3,3,3,29,2,2,2,2,25,6,10,8,12,26,3,12,3,19,3,3,3,3,3,2,30,3,3,8,3,5,5,4,24,2,395.txt
0,0,0,0,9,0,4,5,5,0,0,0,0,0,0,10,0,29,0,3,0,0,0,0,20,0,0,0,0,0,6,9,8,9,0,8,2,7,3,0,3,10,3,0,3,7,0,6,7,5,0,0,0,13,0,0,0,0,0,0,397.txt
0,0,13,29,4,0,7,1,27,0,9,7,6,4,20,11,14,16,4,1,10,20,1,15,30,24,11,7,7,24,21,30,9,28,22,13,1,13,23,16,15,17,27,8,25,13,29,30,16,26,22,5,10,13,8,23,3,13,10,3,400.txt
0,0,1,10,4,2,7,4,21,21,26,12,9,4,12,25,8,8,26,30,29,13,11,21,11,1,7,5,8,14,14,25,26,18,20,15,16,25,30,20,0,15,19,24,20,13,23,1,1,18,11,12,21,25,10,13,8,22,18,12,402.txt
0,0,0,0,9,0,4,5,5,7,17,8,0,0,0,10,7,19,6,3,0,0,0,0,20,4,0,0,0,0,6,9,8,9,22,7,4,28,3,0,0,2,19,19,20,16,22,1,16,15,0,0,0,29,0,13,18,29,18,29,405.txt
0,0,0,0,9,0,4,5,5,25,0,0,0,28,0,10,0,19,0,3,0,0,0,0,10,0,0,0,0,1,22,5,5,16,22,1,14,1,1,21,6,21,4,29,4,13,28,30,16,26,1,1,13,13,16,23,29,13,18,30,407.txt
21,3,13,10,4,5,15,8,4,9,14,11,10,3,22,30,18,15,21,15,3,25,19,22,3,11,7,6,9,14,8,27,16,6,20,26,16,24,13,14,4,19,20,25,17,16,22,28,25,15,11,12,24,20,10,9,13,19,8,29,411.txt
0,0,0,0,9,0,4,5,5,7,17,8,0,0,0,10,7,19,6,3,0,0,0,0,20,4,0,0,0,0,6,9,8,9,0,7,4,28,3,0,0,2,19,19,20,7,0,6,7,5,0,0,0,25,0,0,0,0,0,0,413.txt
0,0,0,0,9,0,4,5,5,7,17,8,0,0,0,10,7,19,6,3,0,0,0,0,20,4,3,24,17,0,30,9,8,9,25,7,4,28,3,7,3,2,3,19,3,7,3,6,7,5,0,0,0,30,0,5,5,4,24,2,416.txt
21,9,13,29,4,30,19,12,30,16,1,1,6,24,20,26,1,15,15,7,22,21,12,1,29,11,26,14,19,6,27,18,7,30,16,14,23,14,23,22,21,19,20,8,17,13,29,30,17,26,22,5,14,24,17,19,28,23,13,22,417.txt
0,0,0,0,9,0,4,5,5,7,17,8,0,0,0,10,7,19,6,3,0,0,0,0,20,4,0,0,0,0,6,9,8,9,0,7,4,28,3,0,0,2,19,19,20,7,0,6,7,5,0,0,0,5,0,0,0,0,0,0,419.txt
0,0,0,0,9,0,8,6,10,0,0,0,1,16,5,12,0,25,0,13,15,17,10,24,10,3,11,7,19,29,22,4,4,16,22,1,22,1,23,22,12,21,9,23,13,13,29,30,16,26,28,17,26,13,21,29,3,13,8,22,421.txt
0,0,0,0,9,0,4,5,5,7,27,20,8,4,7,10,3,20,26,3,2,17,2,2,20,4,0,0,0,1,6,2,30,2,0,8,2,7,3,0,15,21,15,19,14,7,0,6,7,5,1,1,10,25,9,0,0,0,0,0,423.txt
0,0,0,0,9,0,4,5,5,7,17,8,6,0,4,10,7,19,6,1,0,0,0,0,7,23,8,5,8,0,17,6,6,21,15,9,11,9,1,8,0,2,19,18,20,16,10,10,11,15,0,0,0,5,0,13,13,29,26,27,425.txt
0,0,0,0,9,0,4,5,5,0,0,0,0,0,0,10,7,29,6,3,0,0,0,0,20,0,0,0,0,0,7,9,8,9,0,19,2,17,3,0,0,10,19,19,20,7,0,6,7,5,0,0,0,13,0,0,0,0,0,0,427.txt
0,0,0,0,9,0,4,5,5,7,17,8,0,4,0,10,7,29,6,3,0,0,0,0,20,4,0,0,0,1,7,9,8,9,0,19,2,17,3,0,3,10,3,19,3,7,0,6,7,5,1,1,10,25,8,0,0,0,0,0,430.txt
0,0,0,0,9,0,4,5,5,26,0,0,25,16,13,10,0,25,0,3,27,17,10,24,2,19,0,0,0,18,15,2,29,2,22,7,7,28,2,0,13,21,24,0,24,13,29,30,1,26,20,24,25,30,26,8,18,29,18,29,434.txt
0,0,0,0,9,8,4,5,5,8,14,20,23,4,29,10,17,24,16,14,10,25,28,22,20,4,7,14,7,26,6,2,2,2,17,7,2,28,3,7,12,11,13,19,22,13,28,1,9,26,24,26,22,17,30,21,22,12,15,30,436.txt
0,0,0,0,9,0,4,5,5,7,17,8,0,0,0,10,7,19,6,3,0,0,0,0,0,4,3,3,3,0,6,21,21,19,25,0,0,0,0,2,17,17,27,19,25,3,3,3,3,2,0,0,0,13,0,5,5,5,24,5,439.txt
0,0,0,0,9,0,4,5,5,7,17,8,8,13,7,10,7,19,6,3,6,5,5,6,20,4,3,3,3,22,6,2,30,2,25,7,4,28,3,7,11,12,13,19,7,24,3,15,30,28,30,17,3,8,21,2,2,7,2,9,444.txt
0,0,20,20,13,2,21,23,17,2,17,8,8,13,28,19,7,19,6,3,6,5,5,6,15,4,3,9,5,22,18,6,6,22,21,9,23,9,17,8,3,12,3,13,3,16,22,28,17,15,30,17,3,24,27,12,12,27,13,28,447.txt
0,0,0,0,13,0,4,5,5,7,17,8,8,13,7,10,7,19,6,3,6,5,5,6,20,4,3,3,3,22,2,2,30,2,25,7,4,28,3,7,11,12,13,19,7,24,3,15,30,29,28,17,26,8,21,2,2,6,2,6,449.txt
0,0,0,0,9,0,4,5,5,7,17,8,0,0,0,10,7,19,6,3,0,0,0,0,20,4,0,0,0,0,6,9,8,9,2,7,4,28,3,0,0,2,19,19,20,21,15,19,23,6,0,0,0,25,0,7,7,10,6,11,452.txt
0,0,0,0,9,0,4,5,5,7,17,8,8,8,28,10,7,19,6,3,6,5,5,8,0,4,3,3,3,22,6,2,29,2,15,0,0,0,0,2,3,2,3,19,3,16,1,29,22,15,30,17,3,8,21,12,12,22,18,25,454.txt
0,0,0,0,13,0,4,5,5,7,17,8,2,16,13,10,7,19,6,3,15,8,10,8,9,4,3,3,3,29,30,2,29,2,15,6,10,8,12,26,17,27,27,19,15,11,10,10,11,12,0,0,0,8,0,12,12,11,26,25,456.txt
0,0,0,0,9,0,4,5,5,7,17,8,0,0,0,10,7,19,6,3,0,0,0,0,20,4,0,0,0,0,15,9,8,9,0,8,4,7,3,0,0,2,19,19,20,7,0,6,7,5,0,0,0,25,0,0,0,0,0,0,458.txt
0,0,0,0,9,0,4,5,5,0,0,0,6,0,20,10,0,26,0,11,0,0,0,0,12,19,11,5,8,0,13,30,9,17,12,1,22,1,10,22,0,15,19,0,20,21,15,7,23,4,0,0,0,24,0,10,11,20,9,24,460.txt
0,0,0,0,9,0,4,5,5,7,17,8,0,0,0,10,7,19,6,3,0,0,0,0,20,4,3,9,5,7,6,20,20,19,25,7,4,28,3,7,3,2,3,19,3,7,3,6,7,5,8,9,13,8,16,5,5,6,24,9,463.txt
0,0,0,0,9,0,4,5,5,7,17,8,0,0,0,10,7,19,6,3,0,0,0,0,20,4,13,2,2,0,6,21,21,10,25,7,4,28,3,15,6,2,4,19,4,7,3,6,7,5,0,0,0,29,0,5,5,4,24,2,465.txt
0,0,0,0,9,0,4,5,5,7,17,8,15,16,2,10,7,29,6,3,15,9,10,13,20,4,13,24,17,22,6,2,2,2,20,8,8,7,3,25,17,17,16,19,15,13,29,30,1,26,16,2,2,28,2,13,11,11,18,24,469.txt
29,23,11,4,1,11,7,29,1,13,6,13,3,4,8,8,16,16,15,13,4,23,12,22,4,10,18,25,22,1,4,6,6,5,13,1,20,1,18,17,5,5,7,5,9,16,1,22,22,15,8,9,15,17,16,23,20,13,18,16,472.txt
0,0,0,0,9,0,4,5,5,25,0,0,8,13,7,10,29,19,0,3,6,5,5,6,21,18,0,0,0,22,6,2,2,2,0,7,8,28,2,0,15,10,26,0,26,7,0,6,7,5,28,27,26,8,27,0,0,0,0,0,473.txt
0,0,0,0,9,0,4,5,5,0,0,0,25,2,11,10,7,29,6,3,2,17,2,2,0,0,3,3,3,2,15,2,2,2,25,0,0,0,0,2,3,14,3,19,3,3,3,3,3,2,30,24,3,13,27,5,5,4,24,2,475.txt
0,0,0,0,9,0,4,5,5,7,17,8,0,0,0,10,7,19,6,3,0,0,0,0,11,4,0,0,0,0,14,6,6,18,2,9,1,9,11,16,15,2,27,19,25,21,15,20,23,9,0,0,0,30,0,13,8,28,26,12,477.txt
0,0,0,0,9,0,4,5,5,7,17,8,8,13,7,10,7,19,6,3,14,17,9,6,12,4,0,0,0,22,13,6,6,17,2,9,14,9,8,22,15,2,15,19,14,21,15,7,23,4,0,0,0,25,0,10,18,20,9,29,479.txt
0,0,0,0,9,0,4,5,5,7,17,8,0,0,0,10,7,19,6,3,0,0,0,0,20,4,0,0,0,0,6,9,8,9,2,7,4,28,3,0,0,2,19,19,20,21,15,19,23,4,0,0,0,25,0,10,13,20,9,29,481.txt
0,0,0,0,9,0,4,5,5,7,17,8,0,0,0,10,7,19,6,3,0,0,0,0,20,4,0,0,0,0,6,9,8,9,22,8,2,7,3,0,0,17,19,19,20,13,22,29,16,26,0,0,0,13,0,7,7,10,9,11,485.txt
0,0,0,0,9,0,4,5,5,7,17,8,0,0,0,10,7,19,6,3,0,0,0,0,20,4,0,0,0,0,6,9,8,9,2,7,4,28,3,0,0,2,19,19,20,21,15,20,23,1,0,0,0,25,0,23,20,13,18,3,487.txt
0,3,16,2,9,2,21,2,17,2,17,8,0,0,0,19,7,19,6,3,0,0,29,28,20,4,12,30,4,0,6,20,20,19,25,7,4,28,3,7,14,12,26,13,26,24,3,15,30,2,0,0,0,12,0,5,5,6,24,6,488.txt
0,0,0,0,9,0,4,5,5,7,17,8,0,0,0,10,7,19,6,3,0,0,0,0,20,4,0,0,0,0,6,9,8,9,0,7,4,28,3,0,0,2,19,19,20,7,0,6,7,5,0,0,0,25,0,0,0,0,0,0,491.txt
0,0,0,0,9,0,4,5,5,7,17,8,0,0,0,10,7,29,6,3,0,0,0,0,20,4,0,0,0,0,30,9,8,9,0,8,2,7,3,0,0,15,19,19,20,7,0,6,7,5,0,0,0,12,0,0,0,0,0,0,492.txt
0,0,0,0,0,0,4,5,5,7,17,8,0,0,0,10,7,19,6,3,0,0,0,0,9,4,13,24,17,0,30,21,21,19,25,6,10,8,12,26,6,9,4,19,4,3,3,3,3,2,0,0,0,29,0,5,5,7,24,2,494.txt
16,3,4,20,13,2,21,19,17,21,7,14,0,0,0,19,10,17,19,2,0,0,25,28,15,7,22,24,17,15,18,25,26,22,13,26,30,18,13,8,26,23,26,9,27,10,22,28,20,25,0,0,0,5,0,12,15,28,9,29,496.txt
0,0,0,0,9,0,4,5,5,7,17,8,8,2,7,10,7,29,6,3,2,9,2,2,20,4,0,0,0,29,6,11,13,13,12,7,2,28,3,0,6,17,4,19,4,6,13,7,6,1,3,18,3,25,27,3,3,13,18,3,498.txt
0,0,0,0,9,0,4,5,5,7,17,8,0,0,0,10,7,29,6,3,0,0,0,0,20,4,0,0,0,0,30,9,8,9,1,7,2,28,3,7,0,17,19,19,20,13,24,1,18,26,0,0,0,13,0,7,7,10,18,11,500.txt
0,0,0,0,9,0,4,5,5,7,17,8,8,12,13,10,7,19,6,3,15,8,10,8,20,4,3,9,5,22,6,2,29,2,15,7,4,28,3,7,3,2,3,19,3,8,24,25,11,13,0,0,0,8,0,12,12,11,3,25,502.txt
0,0,0,0,9,0,4,5,5,7,17,8,6,0,4,10,7,19,6,29,0,0,0,0,7,23,21,26,23,0,17,5,5,21,2,21,21,23,1,8,0,2,19,5,20,21,15,19,23,15,0,0,0,8,0,10,8,20,18,12,503.txt
0,0,0,0,9,0,4,5,5,7,15,13,3,4,14,10,17,16,4,29,10,23,18,15,0,4,8,5,8,1,6,9,8,9,15,0,0,0,0,2,3,2,3,19,3,16,1,27,11,15,1,28,10,8,16,13,12,29,18,25,505.txt
0,0,0,0,9,0,4,5,5,7,17,8,8,2,7,10,7,26,6,3,2,17,2,2,10,4,0,0,0,22,22,30,9,16,2,1,14,1,8,22,15,15,15,19,14,21,15,7,23,4,3,18,3,25,27,10,18,20,9,13,507.txt
0,0,0,0,9,0,4,5,5,7,17,8,8,4,7,10,7,19,6,3,6,5,5,6,20,4,16,23,16,26,6,2,30,2,13,7,4,28,3,7,3,27,3,19,3,9,22,28,10,15,24,26,22,30,30,13,8,28,6,12,510.txt
0,0,0,0,9,0,4,5,5,24,0,0,8,16,7,10,7,26,6,3,15,17,10,24,28,19,3,23,16,23,6,2,30,2,22,10,23,10,23,22,12,21,9,19,22,13,20,30,17,26,19,5,14,24,17,8,18,27,8,29,513.txt
0,0,0,0,9,0,4,5,5,7,17,8,0,0,0,10,7,19,6,3,0,0,0,0,20,4,0,0,0,0,6,9,8,9,0,8,4,7,3,0,0,2,19,19,20,7,0,6,7,5,0,0,0,25,0,0,0,0,0,0,516.txt
0,0,0,0,9,0,4,5,5,7,17,8,0,0,0,10,7,19,6,3,0,0,0,0,20,4,3,3,3,0,6,20,20,10,15,7,4,28,3,7,3,25,3,19,3,16,27,25,22,15,2,10,18,5,2,12,13,22,6,25,518.txt
29,0,13,10,4,5,26,17,24,9,22,10,23,6,30,3,21,12,16,9,10,25,20,14,17,13,10,15,29,26,25,24,25,29,17,28,30,21,28,1,21,19,21,15,17,11,22,1,9,17,25,26,22,17,30,18,28,30,13,16,521.txt
29,9,29,10,22,29,26,17,30,16,26,10,23,25,14,26,6,6,26,11,18,13,12,14,30,12,19,19,11,1,25,5,5,17,8,1,22,1,1,24,4,22,20,24,18,16,8,8,16,15,1,1,10,3,13,16,3,13,12,3,524.txt
0,0,0,0,9,0,4,5,5,7,4,4,6,0,4,4,10,17,19,12,0,0,0,0,12,23,8,5,8,15,21,6,6,28,2,21,21,23,9,24,0,2,19,7,20,21,2,20,23,4,0,0,0,5,0,10,18,20,3,13,527.txt
0,0,0,0,9,0,4,5,5,7,17,8,0,0,0,10,7,19,6,3,0,0,0,0,20,4,0,0,0,0,30,9,8,9,0,7,4,28,3,0,0,2,19,19,20,7,0,6,7,5,16,10,18,25,7,0,0,0,0,0,529.txt
0,0,0,0,9,0,4,5,5,7,17,8,0,0,0,10,7,19,6,3,0,0,0,0,7,4,3,3,3,0,17,6,6,21,17,9,12,9,17,8,0,2,19,19,20,16,20,27,22,22,0,0,0,8,0,13,8,26,6,12,530.txt
0,0,0,0,9,0,4,5,5,7,17,8,0,0,0,10,7,19,6,3,0,0,0,0,7,4,0,0,0,0,3,24,25,3,15,25,16,25,24,8,0,2,19,19,20,16,10,10,22,15,0,0,0,8,0,12,12,22,26,25,532.txt
0,0,0,0,9,0,4,5,5,7,17,8,0,0,0,10,7,19,6,3,0,0,0,0,20,4,0,0,0,0,15,9,8,9,15,7,4,28,3,7,0,27,19,19,20,16,24,27,11,15,26,10,18,8,7,12,12,11,18,25,534.txt
0,0,0,0,9,0,4,5,5,7,17,8,0,0,0,10,7,19,6,3,0,0,0,0,7,4,0,0,0,0,17,24,25,21,2,25,16,19,27,19,0,2,19,19,20,2,15,19,24,4,16,16,27,25,7,3,24,13,9,3,536.txt
0,0,0,0,9,0,4,5,5,7,17,8,0,0,0,10,7,19,6,3,0,0,0,0,12,4,0,0,0,0,6,9,8,9,22,14,23,14,8,22,0,2,19,19,20,15,20,1,16,1,0,0,0,25,0,29,28,13,16,22,538.txt
0,0,0,0,9,0,4,5,5,7,17,8,0,0,0,10,7,19,6,3,0,0,0,0,20,4,0,0,0,0,6,9,8,9,0,7,4,28,3,0,0,2,19,19,20,7,0,6,7,5,0,0,0,25,0,0,0,0,0,0,541.txt
0,0,0,0,9,0,4,5,5,7,17,8,0,0,0,10,7,19,6,3,0,0,0,0,20,4,0,0,0,0,6,9,8,9,0,7,4,28,3,0,0,2,19,19,20,7,0,6,7,5,0,0,0,25,0,0,0,0,0,0,543.txt
0,0,0,0,9,0,4,5,5,7,17,8,0,0,0,10,7,19,6,3,0,0,0,0,20,4,3,3,3,0,15,9,8,9,3,7,4,28,3,7,0,12,19,3,20,3,3,3,3,2,0,0,0,8,0,5,5,2,24,2,545.txt
0,0,0,0,13,14,4,5,5,30,22,20,0,4,0,10,17,16,29,3,30,25,21,22,20,4,3,3,3,14,6,20,20,19,1,7,4,28,3,7,3,27,3,19,3,16,29,29,20,15,11,12,5,20,23,23,28,13,16,16,549.txt
0,0,0,0,9,0,4,5,5,7,17,8,8,16,13,10,7,19,6,3,21,2,27,8,20,4,3,3,3,22,6,2,2,2,25,7,4,28,3,7,3,2,3,19,3,7,3,6,7,5,0,0,0,8,0,5,5,4,24,9,551.txt
0,0,0,0,9,0,4,5,5,7,17,8,0,0,0,10,7,19,6,3,0,0,0,0,20,4,0,0,0,0,6,9,8,9,2,7,4,28,3,0,0,2,19,19,20,21,15,20,23,1,0,0,0,25,0,10,18,20,8,13,554.txt
0,0,0,0,9,0,4,5,5,7,17,8,0,0,0,10,7,19,6,3,0,0,0,0,20,4,3,3,3,0,30,9,8,9,1,7,4,28,3,7,3,2,3,19,3,16,1,27,18,13,0,0,0,30,0,13,12,29,18,29,557.txt
0,0,0,0,9,0,4,5,5,7,17,8,0,0,0,10,7,19,6,3,0,0,0,0,20,4,0,0,0,0,6,9,8,9,0,7,4,28,3,0,0,2,19,19,20,7,0,6,7,5,0,0,0,25,0,0,0,0,0,0,558.txt
0,0,0,0,9,0,4,5,5,7,17,8,25,8,7,10,7,29,6,3,21,9,27,13,20,4,3,3,3,2,30,2,30,2,22,7,2,28,3,25,3,15,3,19,3,13,27,30,18,27,0,0,0,30,0,13,18,22,18,13,561.txt
29,23,11,4,1,11,11,17,1,13,6,13,13,18,15,26,15,16,8,29,3,19,12,16,11,10,18,25,22,26,14,25,26,18,13,26,16,24,26,28,5,5,7,5,9,12,11,11,25,14,10,11,22,17,20,9,16,19,16,25,564.txt
16,3,20,20,13,2,21,20,17,21,17,8,8,13,28,19,7,19,6,19,6,5,5,6,15,28,3,9,5,19,6,2,30,2,20,16,28,24,26,19,17,27,26,9,26,11,29,30,28,17,26,10,18,8,2,12,12,27,13,25,566.txt
0,0,0,0,13,0,4,5,5,7,17,8,8,14,13,10,7,19,6,3,0,0,0,0,0,4,3,24,17,22,6,2,2,2,25,0,0,0,0,2,3,10,3,19,3,23,3,14,29,2,0,0,0,30,0,2,2,4,2,2,568.txt
0,0,0,0,9,0,4,5,5,7,17,8,0,0,0,10,7,19,6,3,0,0,0,0,20,4,16,24,17,0,6,20,20,19,25,7,4,28,3,7,3,2,3,19,3,7,3,6,7,5,0,0,0,30,0,5,5,4,24,5,572.txt
0,0,0,0,9,0,4,5,5,7,17,8,0,0,0,10,7,19,6,3,0,0,0,0,20,4,3,3,3,0,6,9,8,9,25,7,4,28,3,7,0,2,19,19,20,7,18,6,7,5,16,10,18,13,7,2,2,4,2,5,574.txt
0,0,0,0,9,0,14,10,0,28,0,0,8,16,7,0,0,25,0,3,14,17,9,24,10,19,0,0,0,29,22,4,4,16,12,12,22,12,22,22,12,21,9,0,13,22,2,7,4,1,3,27,3,27,26,8,18,29,8,29,576.txt
0,0,0,0,9,0,4,5,5,7,16,20,0,4,0,10,3,20,26,3,29,1,12,15,20,4,0,0,0,1,6,9,8,9,22,7,2,28,3,0,0,17,19,19,20,13,20,1,16,1,1,28,4,13,4,3,3,25,6,3,578.txt
0,0,11,19,3,0,7,29,25,7,15,13,10,4,12,7,3,20,9,29,10,22,17,23,7,23,8,5,8,1,17,24,28,21,2,25,16,25,24,8,0,2,19,18,20,21,15,19,23,15,1,1,10,8,8,10,13,20,18,25,580.txt
0,0,0,0,9,0,4,5,5,7,17,8,6,2,4,10,7,26,6,1,2,9,2,2,30,4,11,7,19,29,13,30,9,17,1,1,1,1,1,16,3,15,3,19,3,13,28,30,18,18,30,17,3,28,3,16,3,3,18,3,582.txt
0,0,0,0,9,0,4,5,5,7,17,8,8,4,7,10,7,29,6,3,6,5,5,6,20,4,0,0,0,6,6,11,12,13,0,8,2,7,3,0,15,10,15,19,14,7,0,6,7,5,22,20,5,25,23,0,0,0,0,0,584.txt
29,1,29,29,28,0,7,12,27,18,4,4,26,16,20,26,5,5,3,13,15,17,10,24,10,11,26,6,9,29,22,7,9,16,20,10,22,10,23,22,4,19,20,25,17,13,29,30,1,26,20,27,25,30,26,9,18,19,18,29,586.txt
0,0,0,0,9,0,4,5,5,7,17,8,0,0,0,10,7,19,6,3,0,0,0,0,20,4,3,3,3,0,6,9,8,9,25,7,4,28,3,7,3,2,3,19,3,7,3,6,7,5,0,0,0,13,0,5,5,5,24,2,588.txt
0,0,0,0,9,0,4,5,5,7,17,8,8,13,7,10,7,19,6,3,6,5,5,6,20,4,3,3,3,22,6,2,30,2,25,7,6,28,3,7,12,10,13,19,22,7,3,6,7,5,28,27,26,8,27,5,5,6,24,9,591.txt
0,0,0,0,9,0,4,5,5,7,17,8,0,0,0,10,7,19,6,3,0,0,0,0,20,4,3,3,3,0,6,9,8,9,25,7,4,28,3,7,3,2,3,19,3,7,3,6,7,5,0,0,0,30,0,5,5,4,24,2,594.txt
0,0,0,0,9,9,4,5,5,4,9,7,7,4,4,10,3,20,26,12,29,13,15,3,12,4,8,19,7,1,6,9,8,9,2,1,24,1,1,22,0,17,19,19,20,2,15,20,2,26,1,1,10,25,9,3,21,13,18,3,596.txt
0,0,0,0,9,0,17,11,0,0,9,28,8,4,7,0,3,20,28,26,29,1,16,23,22,27,0,0,20,6,6,11,12,13,0,2,6,30,2,3,2,13,2,0,2,0,12,12,0,23,21,22,14,27,17,0,17,9,22,4,598.txt
0,0,0,0,9,0,4,5,5,7,17,8,0,0,0,10,7,19,6,3,0,0,0,0,20,4,0,0,0,0,6,9,8,9,0,8,4,7,3,0,0,2,19,19,20,7,0,6,7,5,0,0,0,13,0,0,0,0,0,0,600.txt
0,0,0,0,9,0,4,5,5,7,17,8,8,4,7,10,7,19,6,3,6,5,5,6,20,4,0,0,0,8,6,2,2,2,12,7,2,28,3,0,15,21,15,19,14,4,15,7,4,4,1,1,14,8,17,10,16,20,9,25,603.txt
0,0,0,0,9,0,4,5,5,7,17,8,0,0,0,10,7,19,6,3,0,0,0,0,10,4,0,0,0,0,22,5,5,16,8,9,1,9,9,16,0,2,19,19,20,16,8,8,16,1,0,0,0,3,0,8,18,22,12,13,604.txt
0,0,0,0,9,0,4,5,5,7,17,8,0,0,0,10,7,19,6,3,0,0,0,0,20,4,0,0,0,0,6,9,8,9,0,7,4,28,3,0,0,2,19,19,20,7,0,6,7,5,0,0,0,25,0,0,0,0,0,0,606.txt
0,0,0,0,9,0,4,5,5,7,17,8,0,0,0,10,7,19,6,3,0,0,0,0,20,4,0,0,0,0,6,9,8,9,15,7,4,28,3,0,0,2,19,19,20,16,22,23,22,15,0,0,0,8,0,23,29,13,9,22,607.txt
0,0,0,0,9,0,4,5,5,7,17,8,0,0,0,10,7,19,6,3,0,0,0,0,20,4,0,0,0,0,6,9,8,9,0,7,4,28,3,0,0,2,19,19,20,7,0,6,7,5,0,0,0,29,0,0,0,0,0,0,613.txt
0,0,0,0,9,0,4,5,5,7,17,8,0,0,0,10,7,19,6,3,0,0,0,0,20,4,0,0,0,0,6,9,8,9,0,8,2,7,3,0,0,10,19,19,20,7,0,6,7,5,0,0,0,25,0,0,0,0,0,0,615.txt
0,0,0,0,9,0,4,5,5,7,17,8,0,0,0,10,7,19,6,3,0,0,0,0,20,4,0,0,0,0,6,9,8,9,0,7,2,28,3,0,0,17,19,19,20,7,0,6,7,5,0,0,0,9,0,0,0,0,0,0,618.txt
0,0,0,0,9,0,4,5,5,7,17,8,0,0,0,10,7,19,6,3,0,0,0,0,20,4,0,0,0,0,6,9,8,9,0,8,4,7,3,0,0,2,19,19,20,7,0,6,7,5,0,0,0,25,0,0,0,0,0,0,621.txt
0,0,13,7,4,9,7,17,27,16,26,25,23,4,19,26,3,3,29,12,30,20,12,22,30,8,17,7,18,4,21,24,25,28,22,25,16,19,24,20,0,23,19,14,20,15,29,30,1,20,22,5,5,20,5,3,3,13,18,3,623.txt
29,9,30,10,28,30,26,17,24,30,22,25,23,28,19,26,1,14,17,30,23,23,21,1,28,30,27,18,29,23,27,18,7,30,22,14,19,14,22,22,21,19,20,25,17,13,28,29,26,26,1,30,14,20,17,19,25,13,13,18,624.txt
0,0,0,0,9,9,4,5,5,4,9,7,7,4,20,10,3,20,26,30,29,1,17,23,20,4,17,19,19,7,6,9,8,9,2,8,4,7,3,0,0,2,19,19,20,2,15,19,24,4,22,22,10,25,12,15,3,13,9,15,627.txt
0,0,0,0,9,0,4,5,5,7,17,8,0,0,0,10,7,19,6,3,0,0,0,0,20,4,3,3,3,0,6,20,20,10,25,7,4,28,3,7,14,12,27,19,25,3,3,3,3,28,0,0,0,13,0,5,5,5,24,6,628.txt
0,0,0,0,9,0,4,5,5,7,17,8,0,0,0,10,7,19,6,3,0,0,0,0,20,4,0,0,0,0,30,20,20,10,0,7,4,28,3,0,0,2,19,19,20,7,0,6,7,5,0,0,0,13,0,0,0,0,0,0,629.txt
29,2,29,10,28,8,27,26,26,8,26,25,23,24,19,9,1,12,23,28,22,13,12,1,13,30,26,13,18,6,4,18,7,7,18,29,23,27,23,11,21,30,20,21,17,13,29,30,12,26,21,5,11,22,19,15,23,17,13,15,631.txt
0,0,0,0,5,0,4,5,5,0,0,0,8,13,7,10,29,0,0,3,6,5,6,7,20,18,22,30,4,20,2,15,11,15,17,3,7,3,3,5,26,0,26,0,26,13,28,30,10,26,29,27,25,5,21,13,14,27,9,27,633.txt
0,0,0,0,9,0,4,5,5,7,17,8,0,0,0,10,7,26,6,3,0,0,0,0,1,4,0,0,0,0,21,24,25,28,16,16,29,21,24,20,15,15,27,19,25,13,29,30,16,18,0,0,0,12,0,3,3,13,18,3,635.txt
0,0,0,0,9,0,4,5,5,7,17,8,0,0,0,10,7,19,6,3,0,0,0,0,10,4,0,0,0,0,22,6,6,16,2,1,1,1,23,16,0,2,19,19,20,21,2,19,23,15,0,0,0,25,0,10,16,20,9,13,637.txt
0,3,16,20,19,2,21,2,17,2,17,8,8,13,7,20,7,29,6,3,13,10,5,6,5,4,3,10,10,21,6,2,30,2,25,8,2,7,3,25,26,10,26,9,26,24,3,15,30,29,30,17,3,9,21,5,5,6,24,9,642.txt
0,0,0,0,9,0,14,6,16,23,0,0,25,2,7,12,0,29,0,3,2,15,2,2,21,0,0,0,0,29,6,2,30,2,0,8,2,7,4,0,3,21,3,29,3,7,0,6,7,0,30,17,3,30,21,0,0,0,0,0,645.txt
29,24,1,4,1,11,27,26,18,11,15,13,19,28,16,9,1,14,5,10,12,4,21,1,23,30,29,26,27,23,24,22,22,8,14,28,17,24,14,30,8,7,8,17,19,10,28,24,10,11,19,5,11,23,19,15,19,17,21,15,647.txt
0,0,0,0,9,0,4,5,5,7,17,8,0,0,0,10,7,19,6,3,0,0,0,0,20,4,0,0,0,0,6,9,8,9,2,7,4,28,3,0,0,2,19,19,20,4,13,19,4,15,16,10,18,8,2,7,7,10,6,11,650.txt
0,0,0,0,9,0,4,5,5,7,17,8,0,0,0,10,7,19,6,3,0,0,0,0,9,4,3,3,3,0,6,12,10,10,25,6,10,8,12,26,3,10,3,19,3,7,3,6,7,5,0,0,0,24,0,5,5,6,24,7,652.txt
0,0,0,0,9,0,4,5,5,7,17,8,25,2,7,10,7,29,6,3,2,15,2,2,0,4,3,24,17,14,30,2,29,2,25,0,0,0,0,2,17,10,27,19,25,3,3,3,3,2,4,4,7,30,10,2,2,4,2,2,654.txt
16,3,20,28,15,2,21,19,17,21,30,2,18,9,26,2,12,21,25,18,27,17,10,12,29,2,16,2,2,20,1,24,25,1,20,25,16,24,24,20,26,24,24,12,24,11,23,30,1,17,26,10,18,30,2,12,18,29,18,29,657.txt
0,0,0,0,9,5,4,5,5,9,14,20,23,4,19,10,17,24,30,29,30,21,19,22,20,4,8,16,11,7,6,9,8,9,15,7,4,28,3,7,0,2,19,19,20,16,28,27,22,15,19,5,5,20,5,29,24,13,9,22,658.txt
0,0,0,0,9,0,4,5,5,7,17,8,0,0,0,10,7,19,6,3,0,0,0,0,20,4,0,0,0,0,6,9,8,9,0,8,8,7,6,0,0,10,19,19,20,7,0,6,7,5,0,0,0,25,0,0,0,0,0,0,662.txt
0,0,0,0,9,0,4,5,5,7,17,8,0,0,0,10,7,19,6,3,0,0,0,0,20,4,0,0,0,0,6,9,8,9,0,7,4,28,3,0,0,2,19,19,20,7,0,6,7,5,0,0,0,25,0,0,0,0,0,0,663.txt
0,0,0,0,9,0,4,5,5,7,17,8,0,0,0,10,7,19,6,3,0,0,0,0,20,4,0,0,0,0,6,9,8,9,2,8,4,7,3,0,0,2,19,19,20,21,15,19,23,15,0,0,0,24,0,7,7,10,11,11,665.txt
0,0,0,0,9,0,4,5,5,7,17,8,0,0,0,10,7,19,6,3,0,0,0,0,20,4,0,0,0,0,6,9,8,9,0,8,2,7,3,0,0,21,19,19,20,7,0,6,7,5,16,10,18,25,7,0,0,0,0,0,669.txt
0,0,0,0,9,0,4,5,5,7,17,8,0,0,0,10,7,19,6,3,0,0,0,0,7,4,0,0,0,0,17,6,6,21,2,23,23,16,8,8,0,2,19,19,20,29,15,19,24,4,0,0,0,25,0,21,21,3,7,22,671.txt
0,0,0,0,9,0,4,5,5,7,17,8,0,0,0,10,7,19,6,3,0,0,0,0,7,4,0,0,0,0,17,6,6,21,17,21,21,23,8,8,15,12,28,19,26,9,22,27,9,10,0,0,0,9,0,13,8,22,9,12,673.txt
0,0,0,0,9,0,4,5,5,7,17,8,0,0,0,10,7,25,6,3,0,0,0,0,10,4,0,0,0,0,22,7,9,16,22,9,1,9,8,16,3,15,3,19,3,13,29,30,18,26,0,0,0,12,0,12,18,28,18,13,675.txt
21,23,11,4,1,11,26,8,19,13,14,23,3,10,8,30,6,6,4,12,4,22,18,1,23,15,29,26,27,1,8,5,5,8,8,9,11,9,1,14,5,5,7,5,9,16,8,8,18,13,1,28,6,3,15,11,13,21,18,25,678.txt
0,0,0,0,0,0,4,5,5,7,17,8,0,0,0,10,7,19,6,3,0,0,0,0,1,4,0,0,0,0,30,19,19,10,22,17,29,18,13,20,0,2,0,19,0,16,22,27,20,9,15,10,18,30,2,7,7,10,9,11,680.txt
0,0,0,0,9,0,4,5,5,7,17,8,0,0,0,10,7,19,6,3,0,0,0,0,20,4,0,0,0,0,30,9,8,9,0,8,4,7,3,0,0,2,19,19,20,7,0,6,7,5,0,0,0,25,0,0,0,0,0,0,683.txt
0,0,0,0,9,0,4,5,5,7,9,7,0,4,0,10,17,16,4,3,7,20,1,15,20,4,0,0,0,8,6,20,20,19,0,8,2,7,3,0,3,17,3,19,3,7,0,6,7,5,8,9,4,30,4,0,0,0,0,0,685.txt
0,0,0,0,9,0,4,5,5,7,17,8,0,0,0,10,7,19,6,3,0,0,0,0,20,4,0,0,0,0,6,9,8,9,0,7,4,28,3,0,0,2,19,19,20,7,0,6,7,5,0,0,0,25,0,0,0,0,0,0,687.txt
0,0,0,0,9,0,4,5,5,7,17,8,0,0,0,10,7,29,6,3,0,0,0,0,20,4,0,0,0,0,6,9,8,9,0,7,2,28,3,0,0,10,19,19,20,7,0,6,7,5,0,0,0,12,0,0,0,0,0,0,689.txt
0,0,0,0,9,0,4,5,5,7,17,8,0,0,0,10,7,19,6,3,0,0,0,0,7,4,3,22,15,0,6,9,8,9,13,9,23,9,17,8,3,2,3,19,3,9,22,27,9,10,0,0,0,24,0,13,12,26,6,28,691.txt
29,0,13,10,4,11,7,29,8,13,13,13,13,4,15,27,17,24,11,29,10,23,18,22,15,10,18,25,22,7,4,25,26,5,22,28,30,21,26,17,5,5,7,5,9,16,28,29,20,15,1,28,13,20,16,20,29,13,9,30,695.txt
0,0,0,0,9,0,4,5,5,7,17,8,6,0,1,10,7,19,6,1,0,0,0,0,7,4,8,5,8,0,3,6,6,3,20,9,1,9,1,8,17,12,27,19,25,16,24,25,1,9,0,0,0,12,0,7,7,10,3,11,696.txt
0,0,13,29,4,0,7,1,26,7,17,8,6,16,20,11,7,26,6,1,27,17,10,9,30,24,11,5,8,18,13,30,9,17,22,9,1,9,23,16,3,15,3,24,3,20,29,30,16,19,30,17,3,29,21,13,18,22,18,13,700.txt
0,0,0,0,9,0,4,5,5,7,17,8,0,0,0,10,7,19,6,3,0,0,0,0,20,4,0,0,0,0,6,9,8,9,2,7,4,28,3,0,0,2,19,19,20,21,15,19,23,22,0,0,0,25,0,10,13,20,18,25,703.txt
29,23,11,29,1,11,7,28,1,29,1,1,21,4,4,27,24,16,4,29,4,19,21,16,4,10,18,25,22,27,8,6,6,5,14,13,20,13,1,17,5,5,7,5,9,11,28,29,10,17,13,25,24,20,22,23,20,24,18,30,705.txt
0,0,0,0,9,0,4,5,5,7,17,8,0,0,0,10,7,19,6,3,0,0,0,0,7,4,0,0,0,0,6,9,8,9,2,4,16,15,30,8,0,2,19,19,20,21,15,20,23,4,0,0,0,12,0,8,12,29,18,13,706.txt
11,3,20,2,13,2,2,19,2,21,30,2,25,16,13,19,12,21,25,2,15,17,10,24,9,28,28,3,3,29,2,2,29,2,20,6,10,8,12,26,12,14,14,12,13,13,29,29,20,26,17,10,18,7,2,14,3,13,18,14,709.txt
16,3,20,20,13,2,21,19,17,21,29,30,17,13,28,19,22,21,24,17,6,5,5,6,20,7,3,10,10,20,2,2,2,2,25,7,4,28,3,7,14,27,26,13,26,24,3,15,30,28,16,10,18,30,7,5,5,7,24,9,711.txt
0,0,0,0,9,0,4,5,5,7,17,8,8,13,7,10,7,19,6,3,6,5,5,6,20,4,3,3,3,22,6,2,2,2,25,7,4,28,3,7,27,12,26,9,26,24,3,15,30,29,0,0,0,8,0,5,5,6,24,9,712.txt
0,0,0,0,9,0,4,5,5,7,7,14,8,13,7,4,10,17,19,23,6,5,5,6,20,5,3,3,3,22,6,13,13,14,22,7,4,28,3,7,3,12,3,19,3,16,1,30,16,16,28,17,26,5,26,13,15,28,13,29,713.txt
0,0,0,0,9,0,4,5,5,7,27,20,0,4,0,10,3,20,26,3,29,14,17,23,20,4,0,0,0,1,6,0,0,0,5,8,8,7,6,0,0,10,19,19,20,7,0,6,7,5,1,1,4,25,4,0,0,0,0,0,716.txt
0,0,0,0,13,0,4,5,5,7,17,8,25,8,13,10,7,19,6,3,15,9,10,13,20,4,3,3,3,2,2,2,2,2,1,7,4,28,3,7,3,12,3,19,3,11,26,29,18,12,28,24,26,5,27,12,18,29,18,29,722.txt
0,0,0,0,9,0,4,5,5,7,17,8,0,0,0,10,7,19,6,3,0,0,0,0,20,4,0,0,0,0,6,9,8,9,0,7,4,28,3,0,0,2,19,19,20,7,0,6,7,5,0,0,0,8,0,0,0,0,0,0,724.txt
0,0,0,0,9,0,4,5,5,7,17,8,29,13,7,10,7,19,6,3,6,5,5,6,20,4,0,0,0,22,6,13,13,14,0,7,8,28,6,0,15,10,15,19,14,7,0,6,7,5,28,18,25,25,27,0,0,0,0,0,727.txt
0,0,0,0,9,0,4,5,5,7,17,8,8,8,2,10,7,19,6,3,21,17,27,24,20,4,0,0,0,22,6,2,29,2,1,7,4,28,3,0,15,2,24,19,24,16,23,29,1,15,0,0,0,29,0,12,8,28,18,12,728.txt
0,0,0,0,9,0,4,5,5,7,17,8,0,0,0,10,7,19,6,3,0,0,0,0,7,4,0,0,0,0,17,6,6,21,22,1,24,1,23,8,0,2,19,19,20,16,20,27,16,1,0,0,0,13,0,7,7,10,6,11,732.txt
0,0,0,0,9,0,4,5,5,7,17,8,0,0,0,10,7,19,6,3,0,0,0,0,7,4,0,0,0,0,17,6,6,21,2,9,1,9,1,8,0,2,19,19,20,21,2,19,23,9,0,0,0,25,0,10,12,20,18,25,734.txt
0,0,11,19,1,5,7,29,19,9,15,21,10,4,18,7,14,16,26,12,29,13,22,15,7,4,8,5,8,1,3,25,26,3,15,17,28,18,30,19,0,2,19,19,20,16,10,10,11,9,1,1,10,8,16,8,12,11,26,25,735.txt
0,0,0,0,14,0,4,5,5,25,0,0,8,16,7,10,0,29,0,3,27,17,10,13,15,0,3,3,3,22,6,2,29,2,22,1,1,1,8,8,26,15,27,11,25,13,29,30,1,26,30,17,3,8,21,13,18,28,18,25,737.txt
0,0,0,0,9,0,4,5,5,7,17,8,0,0,0,10,7,29,6,3,0,0,0,0,20,4,0,0,0,0,30,9,8,9,22,8,2,7,3,0,3,21,3,19,3,13,29,30,18,26,0,0,0,30,0,8,18,29,18,13,738.txt
0,0,0,0,9,8,4,5,5,8,22,20,8,4,7,10,17,16,4,3,10,20,28,22,20,0,3,24,17,8,6,2,2,2,3,8,2,7,3,25,3,21,3,27,3,7,3,6,7,5,1,28,10,19,9,5,5,2,24,2,741.txt
16,3,2,2,13,2,2,19,2,21,30,2,17,16,13,19,12,21,25,17,15,15,10,24,9,28,28,30,4,20,2,11,14,13,24,6,10,8,12,26,26,25,24,12,24,26,18,17,29,28,26,10,18,7,6,27,5,7,29,5,743.txt
0,0,0,0,9,0,4,5,5,7,17,8,25,16,13,10,7,26,6,3,15,17,10,24,20,4,3,3,3,1,15,2,2,2,1,7,2,28,3,7,3,21,3,19,3,13,1,22,18,26,1,28,10,28,9,7,7,10,18,11,747.txt
0,0,0,0,9,0,4,5,5,7,7,14,0,0,0,4,10,17,19,23,0,0,0,0,20,5,0,0,0,15,6,9,8,9,1,7,4,28,3,7,0,2,19,19,20,16,1,27,28,13,0,0,0,8,0,12,13,27,13,25,748.txt
0,0,0,0,9,0,4,5,5,7,17,8,0,0,0,10,7,19,6,3,0,0,0,0,20,4,0,0,0,0,6,9,8,9,2,7,4,28,3,0,0,2,19,19,20,21,2,20,23,1,0,0,0,25,0,10,11,20,3,24,751.txt
29,27,13,10,4,14,20,29,24,30,14,25,23,23,19,29,21,12,10,22,10,25,21,14,3,8,7,14,29,30,10,18,7,11,18,14,19,14,23,14,19,30,20,14,17,10,29,28,9,17,13,25,30,18,30,23,27,30,11,21,755.txt
0,0,0,0,13,0,4,5,5,7,17,8,8,13,13,10,7,19,6,3,14,15,9,6,0,4,3,3,3,22,6,2,2,2,25,0,0,0,0,2,12,2,13,19,13,7,3,6,7,5,27,17,26,3,3,5,5,6,24,2,756.txt
0,0,1,29,3,0,7,1,25,7,17,8,6,0,24,11,7,19,6,13,0,0,0,0,10,23,11,5,8,1,22,6,6,16,2,9,1,9,23,16,0,2,19,24,20,21,15,19,23,4,1,1,10,25,16,7,7,10,9,11,760.txt
0,0,0,0,9,0,4,5,5,7,17,8,0,0,0,10,7,19,6,3,0,0,0,0,20,4,3,3,3,0,6,20,20,19,25,7,4,28,3,5,3,2,3,19,3,24,18,15,30,29,0,0,0,9,0,2,2,6,2,9,765.txt
0,0,0,0,9,0,5,10,10,0,0,0,29,15,7,0,0,0,0,3,15,15,10,24,2,0,16,2,2,29,6,11,12,13,3,3,6,3,2,5,26,0,24,0,27,26,18,17,29,30,20,27,25,1,26,26,5,2,30,5,766.txt
0,0,0,0,9,0,4,5,5,7,17,8,0,0,0,10,7,19,6,3,0,0,0,0,20,4,0,0,0,0,30,9,8,9,0,8,2,7,3,0,0,21,19,19,20,7,0,6,7,5,0,0,0,25,0,0,0,0,0,0,768.txt
0,0,0,0,13,0,4,5,5,7,17,8,2,13,13,10,7,19,6,3,28,15,10,6,0,4,3,3,3,29,30,2,29,2,25,0,0,0,0,2,3,24,3,19,3,3,3,3,3,2,20,3,26,3,21,2,2,4,2,2,771.txt
0,0,0,0,9,0,4,5,5,7,17,8,0,0,0,10,7,19,6,3,0,0,0,0,20,4,3,3,3,0,6,19,19,10,8,7,4,28,3,7,3,2,3,19,3,16,8,8,16,9,0,0,0,3,0,13,8,22,9,12,772.txt
0,0,0,0,9,9,4,5,5,4,9,7,0,4,0,10,3,20,26,3,29,13,17,23,20,4,0,0,0,8,6,9,8,9,0,7,4,28,3,0,0,2,19,19,20,7,0,6,7,5,1,1,4,25,4,0,0,0,0,0,773.txt
0,0,0,0,9,0,4,5,5,22,0,0,25,2,28,10,7,29,6,3,2,17,2,2,20,16,3,3,3,29,15,2,2,2,8,7,2,28,3,7,3,21,3,19,3,13,8,8,16,27,30,24,3,3,26,7,7,10,9,11,775.txt
0,0,0,0,9,0,4,5,5,7,17,8,0,0,0,10,7,19,6,3,0,0,0,0,20,4,3,3,3,0,30,9,8,9,25,7,4,28,3,7,0,2,19,19,20,7,18,6,7,5,26,10,18,8,7,2,2,4,2,2,777.txt
0,0,0,0,9,0,4,5,5,7,1,1,6,28,20,10,6,6,11,30,10,23,28,1,18,4,23,5,8,1,27,6,6,30,8,9,20,9,9,22,3,2,3,19,3,16,8,8,28,15,19,5,13,3,16,13,16,27,12,29,779.txt
0,0,0,0,9,0,4,5,5,7,17,8,0,0,0,10,7,19,6,3,0,0,0,0,20,4,0,0,0,0,6,9,8,9,2,7,4,28,3,0,0,2,19,19,20,21,15,19,23,4,0,0,0,25,0,29,21,13,9,22,781.txt
0,0,0,0,9,0,4,5,5,7,17,8,0,0,0,10,7,19,6,3,0,0,0,0,20,4,0,0,0,0,6,9,8,9,2,8,2,7,3,0,0,21,19,19,20,2,15,20,2,4,0,0,0,30,0,16,21,25,9,30,785.txt
0,0,0,0,9,0,4,5,5,7,17,8,0,0,0,10,7,19,6,3,0,0,0,0,20,4,0,0,0,0,30,9,8,9,0,7,4,28,3,0,0,2,19,19,20,7,0,6,7,5,0,0,0,13,0,0,0,0,0,0,787.txt
0,0,13,29,4,0,7,1,30,7,17,8,6,16,4,11,7,19,6,11,14,17,9,9,30,10,11,5,8,22,13,6,6,17,1,9,25,9,1,22,3,2,3,7,3,16,1,30,16,4,30,27,3,30,27,8,18,28,9,29,790.txt
0,0,0,0,9,0,4,5,5,7,17,8,8,8,7,10,7,19,6,3,6,5,5,24,18,4,3,3,3,22,13,30,9,17,8,13,20,13,18,24,3,21,3,19,3,13,8,8,17,26,27,17,26,3,21,13,16,28,9,25,792.txt
0,0,0,0,9,0,4,5,5,7,17,8,0,0,0,10,7,19,6,3,0,0,0,0,20,4,0,0,0,0,6,9,8,9,22,7,4,28,3,0,15,2,24,19,24,16,1,30,1,15,0,0,0,29,0,13,18,29,18,29,796.txt
0,0,0,0,9,0,4,5,5,7,17,8,0,0,0,10,7,19,6,3,0,0,0,0,20,4,0,0,0,0,6,9,8,9,2,7,4,28,3,0,0,2,19,19,20,21,15,19,23,22,0,0,0,12,0,10,11,20,6,24,800.txt
0,0,0,0,9,0,4,5,5,7,16,21,10,4,18,10,3,20,26,30,29,13,3,23,12,4,11,16,19,1,21,24,25,28,2,25,16,24,27,20,0,15,19,19,20,21,15,19,23,4,22,20,4,24,4,20,21,12,9,16,802.txt
0,0,11,29,1,0,7,1,1,7,7,14,6,4,4,11,10,17,19,29,0,0,0,0,7,5,29,26,27,7,17,6,6,21,8,9,20,9,17,8,3,2,3,19,3,16,8,8,22,16,7,7,15,3,15,13,15,28,12,25,806.txt
0,0,0,0,9,0,4,5,5,0,0,0,0,0,0,10,0,29,0,3,0,0,0,0,21,0,16,24,17,0,6,20,20,19,3,8,2,7,4,25,17,21,26,29,28,7,3,6,7,5,0,0,0,13,0,5,5,2,24,2,807.txt
0,0,0,0,9,0,4,5,5,7,17,8,8,2,7,10,7,19,6,3,2,9,2,2,0,4,0,0,0,2,6,2,2,2,1,0,0,0,0,0,3,21,3,19,3,13,10,10,18,26,0,0,0,30,0,7,7,10,26,11,810.txt
0,0,0,0,9,0,4,5,5,0,0,0,8,2,7,10,0,29,0,3,2,2,2,2,20,0,0,0,0,22,6,2,2,2,0,8,2,7,3,0,15,10,15,28,14,7,0,6,7,5,3,18,3,27,3,0,0,0,0,0,813.txt
21,23,11,29,1,11,7,28,1,13,1,1,21,4,4,5,16,15,15,29,19,23,12,22,4,10,18,25,22,7,23,6,6,5,19,14,20,14,21,17,5,5,7,5,9,9,30,30,9,10,19,5,13,17,16,18,26,13,14,17,816.txt
0,0,0,0,9,5,4,5,5,9,1,1,0,4,0,10,17,24,10,3,30,21,1,15,20,4,3,22,15,11,6,20,20,19,30,8,8,7,3,25,0,17,19,19,20,13,22,29,10,26,8,9,5,24,24,29,24,30,16,22,817.txt
0,0,0,0,9,0,4,5,5,7,17,8,8,13,7,10,7,19,6,3,6,5,5,6,20,4,16,24,17,22,6,2,2,2,25,7,4,28,3,15,3,12,3,19,3,24,3,15,30,29,30,17,3,13,27,5,5,6,24,9,818.txt
0,0,0,0,13,0,14,9,0,0,0,0,8,13,7,0,30,29,0,26,6,5,5,6,21,0,14,24,17,22,6,2,2,2,25,2,8,30,2,15,2,10,2,0,2,19,3,0,27,0,27,17,25,13,27,4,4,4,23,6,821.txt
0,0,0,0,9,0,4,5,5,7,17,8,8,8,13,10,7,29,6,3,21,17,27,13,1,4,3,2,2,2,13,29,9,17,20,21,21,23,8,16,26,17,27,19,15,13,24,22,1,26,20,17,25,29,3,12,18,29,18,29,824.txt
0,0,0,0,9,0,4,5,5,7,17,8,0,0,0,10,7,19,6,3,0,0,0,0,20,4,0,0,0,0,6,9,8,9,0,7,4,28,3,0,0,2,19,19,20,7,0,6,7,5,0,0,0,25,0,0,0,0,0,0,827.txt
29,0,13,29,30,0,27,14,29,17,17,8,6,27,24,14,7,19,6,30,17,12,14,18,10,30,23,6,9,23,22,18,7,16,22,14,15,14,23,22,21,19,20,8,17,15,20,24,17,1,5,5,12,24,25,9,14,19,13,29,831.txt
0,0,0,0,9,0,4,5,5,7,17,8,0,22,0,10,7,19,6,3,0,0,0,0,20,4,0,0,0,23,6,9,8,9,2,7,4,28,3,0,0,2,19,19,20,2,15,19,24,1,22,20,15,25,16,23,3,13,6,22,832.txt
0,0,0,0,9,0,4,5,5,7,17,8,0,0,0,10,7,19,6,3,0,0,0,0,20,4,0,0,0,0,6,9,8,9,0,7,4,28,3,0,0,2,19,19,20,7,0,6,7,5,0,0,0,30,0,0,0,0,0,0,834.txt
0,0,0,0,9,0,4,5,5,7,17,8,0,0,0,10,7,19,6,3,0,0,0,0,20,4,0,0,0,0,6,9,8,9,2,7,4,28,3,0,0,2,19,19,20,4,15,19,4,22,26,10,18,25,2,10,12,20,6,25,836.txt
0,0,0,0,9,0,4,5,5,7,17,8,8,13,7,10,7,19,6,3,6,5,5,6,20,4,3,24,17,22,6,11,13,13,25,7,2,28,3,7,3,17,3,19,3,7,3,6,7,5,0,0,0,13,0,2,2,7,2,9,839.txt
0,0,13,10,4,0,7,17,7,7,28,10,23,4,30,26,18,14,15,30,10,21,12,21,28,24,23,18,18,8,27,4,4,30,22,14,23,14,23,22,18,21,28,8,24,13,10,10,26,26,19,5,14,30,17,19,28,13,9,18,842.txt
0,0,0,0,9,0,4,5,5,0,0,0,0,0,0,10,0,29,0,3,0,0,0,0,21,0,0,0,0,0,6,9,8,9,2,7,2,28,5,0,0,17,19,29,20,2,15,7,24,1,0,0,0,26,0,3,3,13,18,3,847.txt
16,3,16,20,9,2,21,2,17,19,30,30,0,0,0,18,2,2,25,2,25,28,25,28,20,28,0,0,0,17,6,20,20,19,0,8,4,7,3,0,0,27,19,11,20,3,0,3,3,28,16,2,2,12,2,0,0,0,0,0,851.txt
0,0,5,2,13,2,21,19,17,21,4,4,0,0,0,19,11,18,20,23,0,0,26,28,3,29,22,23,16,15,18,27,16,22,14,26,16,24,13,19,26,25,24,30,24,10,23,28,10,13,26,10,18,30,2,12,13,27,13,29,852.txt
0,0,13,29,22,5,7,1,28,9,1,1,6,4,20,27,6,6,4,29,10,7,22,22,15,4,8,16,7,1,17,6,6,21,8,1,20,1,23,8,3,12,3,19,3,16,8,8,25,15,8,9,15,3,16,23,20,13,9,30,855.txt
0,0,0,0,9,0,4,5,5,7,17,8,0,0,0,10,7,19,6,3,0,0,0,0,20,4,3,3,3,0,6,9,8,9,25,7,4,28,3,7,3,2,3,19,3,7,3,6,7,5,0,0,0,3,0,5,5,4,24,2,857.txt
0,0,0,0,9,10,4,5,5,1,8,18,28,23,5,6,3,3,1,13,1,1,15,3,10,4,17,7,19,4,22,18,7,16,9,12,24,12,23,22,7,2,5,6,5,2,13,2,24,1,5,22,5,25,5,29,3,13,18,22,859.txt
0,0,0,0,9,0,4,5,5,0,0,0,8,2,7,10,0,26,0,3,2,17,2,2,30,16,0,0,0,22,13,30,9,17,22,10,1,10,1,16,15,15,27,0,25,13,10,10,16,26,30,27,3,28,27,13,18,28,26,13,861.txt
0,0,0,0,13,0,4,5,5,7,17,8,8,13,11,10,7,19,6,3,6,5,5,6,20,4,3,3,3,22,2,2,30,2,25,7,4,28,3,7,3,12,3,19,3,24,3,15,30,28,30,17,3,8,21,2,2,7,2,9,864.txt
0,0,0,0,9,0,4,5,5,7,17,8,8,16,2,10,7,19,6,3,15,17,10,9,1,4,13,2,2,29,21,6,6,28,22,9,1,9,9,16,3,2,3,19,3,16,22,29,16,9,20,17,26,30,26,13,18,28,9,29,866.txt
0,0,0,0,9,0,4,5,5,7,17,8,0,0,0,10,7,19,6,3,0,0,0,0,20,4,0,0,0,0,6,9,8,9,0,7,8,28,3,0,0,9,19,19,20,7,0,6,7,5,0,0,0,25,0,0,0,0,0,0,868.txt
0,0,0,0,9,0,4,5,5,7,17,8,0,0,0,10,7,19,6,3,0,0,0,0,20,4,0,0,0,0,6,9,8,9,0,7,4,28,3,0,0,2,19,19,20,7,0,6,7,5,0,0,0,25,0,0,0,0,0,0,870.txt
0,0,0,0,9,0,4,5,5,7,17,8,5,16,7,10,7,19,6,3,15,17,10,9,30,4,3,24,17,18,21,6,6,28,22,9,1,9,8,16,3,2,3,19,3,16,29,22,18,9,30,3,3,30,3,7,7,10,9,11,872.txt
16,3,22,2,13,2,2,19,2,21,30,2,25,16,13,2,22,21,24,18,15,17,10,13,9,28,22,30,4,29,2,15,11,15,20,6,10,8,12,26,26,21,16,12,15,13,28,30,1,26,26,10,18,7,2,14,3,13,18,14,874.txt
0,0,0,0,9,0,4,5,5,7,17,8,0,0,0,10,7,19,6,3,0,0,0,0,20,4,0,0,0,0,6,9,8,9,0,7,4,28,3,0,0,2,19,19,20,7,0,6,7,5,0,0,0,13,0,0,0,0,0,0,879.txt
0,0,0,0,9,0,14,9,0,0,0,0,0,0,0,0,30,0,0,0,0,0,0,0,21,0,0,0,0,0,6,9,8,9,0,2,2,2,5,0,0,10,19,27,20,19,0,0,27,5,0,0,0,27,0,0,0,0,0,0,882.txt
16,3,16,20,13,2,21,20,17,2,29,30,8,13,7,19,12,21,2,2,6,5,5,6,20,7,3,3,3,20,2,2,2,2,21,7,4,28,3,7,26,12,26,30,26,13,28,29,28,26,28,17,25,8,27,14,28,30,9,14,884.txt
0,0,0,0,9,0,4,5,5,7,17,8,0,0,0,10,7,19,6,3,0,0,0,0,20,4,0,0,0,0,6,9,8,9,2,7,4,28,3,7,0,27,19,19,20,21,15,20,23,15,16,2,28,8,2,23,3,13,3,16,885.txt
0,0,0,0,9,0,4,5,5,7,17,8,0,0,0,10,7,19,6,3,0,0,0,0,20,4,16,24,17,0,6,9,8,9,3,7,4,28,3,7,3,2,3,19,3,7,3,6,7,5,0,0,0,13,0,5,5,2,24,2,886.txt
0,0,0,0,9,0,4,5,5,7,17,8,0,0,0,10,7,19,6,3,0,0,0,0,20,4,3,3,3,1,6,20,20,10,22,7,4,28,3,7,0,2,19,19,20,16,22,23,16,15,1,30,10,30,16,13,12,28,9,29,889.txt
0,0,0,0,9,0,4,5,5,7,6,20,8,4,7,10,17,11,29,3,30,21,12,15,20,4,3,3,3,8,6,11,13,13,25,7,2,28,3,7,17,17,27,19,25,24,3,15,30,29,8,9,10,8,14,2,2,6,2,9,891.txt
0,0,0,0,9,0,4,5,5,7,17,8,0,0,0,10,7,19,6,3,0,0,0,0,20,4,0,0,0,0,6,9,8,9,0,7,4,28,3,0,0,2,19,19,20,7,0,6,7,5,0,0,0,25,0,0,0,0,0,0,893.txt
16,3,20,2,2,2,2,19,2,2,30,2,8,8,13,17,12,23,25,19,21,8,27,12,1,28,3,2,2,29,21,16,16,28,20,4,16,25,13,20,26,15,27,12,15,13,19,1,1,26,30,17,3,29,21,12,8,29,18,12,896.txt
0,0,13,29,4,0,7,1,27,7,17,8,6,8,4,11,7,19,6,1,14,9,9,9,1,23,11,5,8,29,21,6,6,28,1,9,1,9,1,16,3,2,3,7,3,16,24,22,18,9,30,3,3,29,3,13,18,29,3,13,900.txt
0,0,0,0,9,0,4,5,5,7,17,8,6,4,20,10,7,19,6,29,0,0,0,0,7,4,8,5,8,8,17,6,6,21,2,9,12,9,9,8,0,2,19,19,20,21,15,19,23,15,1,1,13,13,16,10,12,20,9,29,902.txt
29,3,13,10,4,14,11,26,24,30,22,25,23,18,19,27,21,12,10,8,11,25,20,14,15,13,10,13,13,25,4,23,23,24,18,17,18,21,15,17,19,29,21,14,17,20,30,29,15,19,14,15,23,18,30,22,27,30,11,23,905.txt
16,3,0,0,9,0,4,5,5,7,30,30,0,0,0,10,12,22,25,19,24,27,0,0,20,7,16,24,17,16,6,9,8,9,20,7,2,28,3,7,0,21,19,11,20,13,29,30,16,26,16,10,18,30,2,14,3,13,18,14,907.txt
0,0,0,0,9,9,4,5,5,4,9,7,0,4,0,10,3,20,26,3,29,1,17,23,20,4,0,0,0,7,6,9,8,9,2,7,4,28,3,0,0,2,19,19,20,2,15,19,24,4,22,22,4,25,4,29,21,25,6,22,909.txt
16,6,20,2,0,2,2,19,2,21,30,2,0,0,0,2,12,21,25,18,24,27,24,27,9,28,2,2,2,16,15,19,19,10,20,6,10,8,12,26,0,26,0,12,0,11,23,28,1,17,26,10,18,30,2,12,13,29,18,29,911.txt
0,0,0,0,9,9,4,5,5,4,16,20,0,4,0,10,3,20,26,3,29,14,3,23,20,4,0,0,0,1,6,9,8,9,0,8,8,7,3,0,0,17,19,19,20,7,0,6,7,5,1,1,4,25,4,0,0,0,0,0,914.txt
21,9,29,29,24,22,26,13,30,16,1,1,21,28,1,26,1,15,21,7,23,3,12,1,28,11,27,14,24,7,27,18,7,30,18,14,19,14,23,22,21,19,20,14,17,10,28,30,9,1,19,5,20,18,15,19,28,23,13,22,917.txt
0,0,13,29,4,0,7,1,8,7,17,8,6,4,20,25,7,19,6,1,0,0,0,0,1,23,11,5,8,1,21,6,6,28,22,9,1,9,23,21,17,12,27,24,25,16,23,1,1,9,1,28,10,12,16,7,7,10,18,11,922.txt
0,0,0,0,9,0,4,5,5,7,17,8,8,13,7,10,7,19,6,3,6,5,5,6,20,4,0,0,0,22,6,2,30,2,0,7,4,28,3,0,12,2,13,19,22,7,0,6,7,5,30,17,3,9,27,0,0,0,0,0,924.txt
0,0,0,0,9,0,4,5,5,7,17,8,0,0,0,10,7,29,6,3,0,0,0,0,20,4,0,0,0,0,30,9,8,9,0,8,2,7,3,0,25,15,19,19,20,7,0,6,7,5,0,0,0,25,0,0,0,0,0,0,925.txt
0,0,0,0,9,0,4,5,5,7,17,8,6,0,1,10,7,19,6,12,0,0,0,0,1,23,11,5,8,1,21,6,6,28,1,1,14,1,23,22,0,3,19,7,20,16,22,30,16,9,1,28,10,30,8,13,11,29,8,24,926.txt
0,0,11,4,1,0,7,29,19,7,17,8,10,4,12,7,7,19,6,29,0,0,0,0,7,23,8,5,8,1,17,16,16,21,22,28,28,25,30,8,0,2,19,18,20,16,22,27,16,15,1,29,10,8,8,13,13,28,9,25,928.txt
0,0,0,0,9,0,4,5,5,7,17,8,0,0,0,10,7,19,6,3,0,0,0,0,20,4,0,0,0,0,6,9,8,9,2,7,4,28,3,0,0,2,19,19,20,21,15,20,23,22,0,0,0,25,0,10,18,20,6,29,930.txt
0,0,0,0,9,0,4,5,5,7,17,8,0,0,0,10,7,19,6,3,0,0,0,0,20,4,3,3,3,0,6,19,19,19,25,7,4,28,3,7,18,12,26,19,26,24,3,15,30,28,0,0,0,24,0,5,5,5,24,8,932.txt
29,9,29,10,27,29,15,29,24,14,13,22,12,17,29,29,1,12,16,8,11,19,21,1,25,10,26,12,19,26,4,23,23,5,17,16,18,21,15,17,21,19,20,20,17,9,11,11,13,10,10,11,22,17,30,14,27,30,15,14,935.txt
0,0,0,0,9,0,4,5,5,7,17,8,0,0,0,10,7,19,6,3,0,0,0,0,20,4,3,3,3,0,6,20,20,19,25,7,4,28,3,7,0,2,19,19,20,7,3,6,7,5,0,0,0,5,0,2,2,4,2,7,940.txt
0,0,0,0,9,0,4,5,5,7,17,8,0,0,0,10,7,19,6,3,0,0,0,0,20,4,0,0,0,0,6,9,8,9,0,7,4,28,3,0,0,2,19,19,20,7,0,6,7,5,0,0,0,25,0,0,0,0,0,0,942.txt
29,23,1,4,3,9,7,27,12,11,15,9,19,29,16,9,13,4,28,10,29,13,17,23,7,30,29,26,27,13,24,22,22,8,7,25,17,19,14,30,8,7,8,17,19,28,16,21,24,11,21,22,11,16,19,15,19,17,21,15,944.txt
0,0,0,0,9,0,4,5,5,7,17,8,0,0,0,10,7,19,6,3,0,0,0,0,20,4,0,0,0,0,6,9,8,9,0,7,4,28,3,0,0,2,19,19,20,7,0,6,7,5,0,0,0,25,0,0,0,0,0,0,946.txt
0,0,0,0,9,0,4,5,5,7,27,10,23,4,14,10,17,10,29,1,10,20,18,15,20,4,8,5,8,1,6,2,2,2,22,7,4,28,3,7,3,2,3,19,3,13,22,1,16,26,1,29,10,8,16,13,12,29,9,25,949.txt
0,0,0,0,9,0,4,5,5,7,17,8,0,0,0,10,7,19,6,3,0,0,0,0,20,4,0,0,0,0,6,9,8,9,0,7,4,28,3,0,0,2,19,19,20,7,0,6,7,5,0,0,0,25,0,0,0,0,0,0,951.txt
16,3,16,20,9,2,21,2,17,21,30,30,8,13,7,19,22,23,24,18,6,5,5,6,20,20,16,23,16,20,6,2,30,2,20,8,2,7,3,25,17,9,26,30,26,13,10,10,20,26,30,17,3,28,21,13,8,22,9,12,954.txt
0,0,0,0,9,9,4,5,5,4,1,1,0,4,0,10,3,20,26,3,29,14,17,23,20,4,0,0,0,1,6,9,8,9,0,7,4,28,6,0,0,2,19,19,20,7,0,6,7,5,21,20,4,25,4,0,0,0,0,0,956.txt
0,0,13,10,4,0,7,17,28,7,17,8,10,0,18,25,7,19,6,29,0,0,0,0,1,23,8,5,8,0,1,23,23,1,16,17,18,18,15,27,0,2,19,7,20,16,20,1,16,15,16,16,27,9,2,7,7,10,14,11,959.txt
0,0,0,0,9,0,4,5,5,7,17,8,0,0,0,10,7,19,6,3,0,0,0,0,20,4,14,24,17,0,6,20,20,10,3,7,4,28,3,7,14,25,28,19,26,3,3,3,3,2,16,10,18,12,2,5,5,2,24,6,961.txt
0,0,0,0,9,0,4,5,5,7,17,8,0,0,0,10,7,19,6,3,0,0,0,0,20,4,0,0,0,0,6,9,8,9,0,8,2,7,3,0,0,10,19,19,20,7,0,6,7,5,0,0,0,25,0,0,0,0,0,0,962.txt
16,3,16,2,13,2,21,22,17,21,30,2,17,16,13,19,22,21,24,18,15,2,10,12,20,28,22,24,17,14,2,15,11,15,24,8,6,7,3,25,17,21,24,12,24,3,3,3,3,2,11,12,24,30,10,27,5,7,29,5,964.txt
0,0,16,20,9,2,21,2,17,2,17,8,8,13,7,23,7,19,6,3,6,5,5,6,20,4,12,23,16,7,6,15,11,15,25,7,4,28,3,7,27,12,26,30,29,24,3,15,30,29,8,9,13,11,16,5,5,6,24,9,966.txt
0,0,0,0,9,0,4,5,5,7,17,8,8,13,7,10,7,29,6,3,6,5,5,6,20,4,3,3,3,22,6,2,30,2,25,7,2,28,3,25,3,21,3,19,3,7,3,6,7,5,30,17,3,30,21,5,5,5,24,9,968.txt
0,0,0,0,9,0,4,5,5,7,17,8,0,0,0,10,7,19,6,3,0,0,0,0,20,4,0,0,0,0,6,9,8,9,0,7,4,28,3,0,0,2,19,19,20,7,0,6,7,5,0,0,0,25,0,0,0,0,0,0,970.txt
0,0,0,0,9,0,4,5,5,7,9,7,0,4,0,10,3,20,26,3,0,0,0,0,20,4,0,0,0,8,7,9,8,9,0,19,2,17,3,0,25,17,19,19,20,7,0,6,7,5,5,5,10,25,14,0,0,0,0,0,974.txt
0,0,0,0,9,0,4,5,5,7,17,8,0,0,0,10,7,19,6,3,0,0,0,0,20,4,0,0,0,0,6,9,8,9,0,8,4,7,3,0,0,2,19,19,20,7,0,6,7,5,0,0,0,25,0,0,0,0,0,0,975.txt
0,0,0,0,9,0,4,5,5,7,17,8,12,0,15,10,7,19,6,8,0,0,0,0,7,23,30,26,28,0,17,23,23,21,18,28,18,18,15,8,0,12,19,22,20,9,30,28,13,10,0,0,0,8,0,6,6,26,4,10,979.txt
16,3,0,0,9,0,4,5,5,7,24,30,8,13,7,10,22,21,24,2,6,5,5,6,20,6,14,22,15,22,6,15,11,15,25,7,27,28,3,7,26,10,29,19,26,24,3,15,30,29,30,17,3,9,21,2,2,6,2,8,981.txt
0,0,0,0,9,0,4,5,5,7,17,8,0,0,0,10,7,19,6,3,0,0,0,0,20,4,0,0,0,0,6,9,8,9,22,7,4,28,3,0,3,2,3,19,3,16,29,30,18,22,0,0,0,25,0,8,8,29,18,12,987.txt
0,0,0,0,13,0,4,5,5,7,17,8,8,13,11,10,7,19,6,3,6,5,5,6,20,4,3,3,3,22,6,2,30,2,25,7,4,28,3,7,12,25,13,19,13,24,3,15,30,29,30,17,3,8,27,5,5,6,24,6,989.txt
29,9,1,29,3,0,27,13,25,6,7,14,21,19,20,25,10,17,19,11,16,11,13,17,11,1,26,6,9,15,14,18,7,18,6,9,20,9,9,22,4,19,20,8,17,21,4,21,23,22,0,0,0,23,0,9,11,19,25,24,994.txt
0,0,0,0,9,0,4,5,5,7,17,8,0,0,0,10,7,19,6,3,0,0,0,0,20,4,0,0,0,0,30,9,8,9,0,8,2,7,3,0,0,10,19,19,20,7,0,6,7,5,0,0,0,13,0,0,0,0,0,0,996.txt
0,0,0,0,9,0,4,5,5,7,17,8,0,0,0,10,7,19,6,3,0,0,0,0,1,4,28,3,3,0,29,16,16,17,8,17,29,18,26,27,3,2,3,19,3,16,8,8,20,9,15,10,18,3,7,12,8,22,9,12,998.txt
0,0,0,0,9,0,14,9,0,0,0,0,8,13,7,12,30,29,0,3,6,5,5,6,21,0,14,22,15,22,6,2,30,2,25,8,2,7,4,15,3,10,3,28,3,7,3,6,7,5,30,17,3,11,21,2,2,5,2,8,1002.txt
0,0,0,0,9,0,4,5,5,7,1,1,0,4,0,10,3,20,26,3,0,0,0,0,20,4,0,0,0,23,6,9,8,9,0,7,4,28,3,0,0,2,19,19,20,7,0,6,7,5,21,20,10,25,16,0,0,0,0,0,1005.txt
0,0,0,0,9,0,4,5,5,7,17,8,6,0,4,10,7,19,6,29,0,0,0,0,7,4,18,25,22,0,17,6,6,21,2,23,23,16,17,8,0,2,19,19,20,21,15,19,23,4,0,0,0,25,0,10,12,20,9,25,1008.txt
0,0,0,0,9,0,4,5,5,7,17,8,10,0,18,10,7,19,6,29,0,0,0,0,3,23,8,5,8,0,17,6,6,21,17,9,20,9,17,8,12,2,13,8,22,16,22,27,28,15,0,0,0,24,0,13,12,26,9,28,1010.txt
0,0,0,0,9,0,4,5,5,7,17,8,0,0,0,10,7,19,6,3,0,0,0,0,20,4,0,0,0,0,6,9,8,9,2,7,4,28,3,0,0,2,19,19,20,21,15,19,23,4,0,0,0,25,0,7,7,10,9,11,1013.txt
0,0,0,0,9,0,4,5,5,0,0,0,8,13,7,10,30,29,0,3,6,5,5,6,21,0,3,3,3,22,6,2,2,2,25,8,2,7,5,15,3,21,3,29,3,7,3,6,7,5,0,0,0,30,0,5,5,6,24,9,1015.txt
0,0,0,0,9,0,14,9,0,23,0,0,8,13,7,12,30,26,0,3,6,5,5,6,21,0,0,0,0,22,6,2,30,2,12,8,2,7,4,0,6,21,4,27,4,21,15,7,23,22,30,27,3,13,21,7,7,10,11,11,1018.txt
21,23,11,4,1,11,26,8,1,13,14,13,13,22,15,30,6,6,30,25,19,7,21,1,4,15,18,25,22,27,10,25,26,5,8,28,30,21,26,17,5,5,7,5,9,12,8,8,9,14,24,26,22,3,20,23,26,24,12,30,1020.txt
0,0,0,0,9,0,4,5,5,7,17,8,0,0,0,10,7,29,6,3,0,0,0,0,20,4,12,3,3,0,6,20,20,19,25,7,8,28,3,15,11,10,13,19,7,7,3,6,7,5,0,0,0,8,0,2,2,6,2,8,1022.txt
0,0,0,0,9,0,4,5,5,7,17,8,0,0,0,10,7,19,6,3,0,0,0,0,20,4,0,0,0,0,6,9,8,9,0,7,4,28,3,0,0,12,19,19,20,24,0,15,30,28,0,0,0,30,0,0,0,0,0,0,1025.txt
0,0,0,0,9,9,4,5,5,4,1,1,0,4,0,10,3,20,26,3,29,13,17,23,20,4,0,0,0,7,6,9,8,9,0,7,4,28,3,0,0,2,19,19,20,7,0,6,7,5,22,22,10,25,16,0,0,0,0,0,1027.txt
0,0,0,0,9,0,4,5,5,7,17,8,8,13,7,10,7,19,6,3,6,5,5,6,20,4,14,24,17,22,6,13,13,14,25,8,4,7,3,25,3,2,3,19,3,7,18,6,7,5,28,17,26,3,27,2,2,6,2,6,1030.txt
0,0,0,0,21,13,4,5,5,16,10,18,1,27,27,10,1,30,15,7,10,21,12,1,6,4,17,14,19,23,7,12,10,19,30,19,2,17,3,0,25,21,11,19,6,13,29,30,10,26,1,30,14,20,17,29,27,23,13,22,1036.txt
0,0,0,0,9,0,4,5,5,7,17,8,0,0,0,10,7,19,6,3,0,0,0,0,20,4,0,0,0,0,6,9,8,9,0,7,4,28,3,0,0,2,19,19,20,7,0,6,7,5,0,0,0,25,0,0,0,0,0,0,1041.txt
0,0,0,0,9,9,4,5,5,9,14,20,0,4,0,10,3,20,16,3,10,23,17,23,20,4,0,0,0,7,6,9,8,9,0,7,4,28,3,0,0,2,19,19,20,7,0,6,7,5,22,22,13,17,16,0,0,0,0,0,1043.txt
0,0,0,0,9,0,4,5,5,7,27,20,0,4,0,10,17,16,15,3,10,21,28,15,20,4,3,3,3,8,6,9,8,9,25,7,2,28,3,7,0,17,19,19,20,7,18,6,7,5,19,5,14,13,9,2,2,5,2,9,1045.txt
0,0,0,0,9,0,4,5,5,7,17,8,0,0,0,10,7,26,6,3,0,0,0,0,12,4,0,0,0,0,6,9,8,9,2,13,14,13,10,22,0,21,19,19,20,21,15,19,23,1,0,0,0,25,0,7,7,10,16,11,1046.txt
0,0,0,0,9,0,4,5,5,25,0,0,0,0,0,10,7,29,6,3,0,0,0,0,20,0,0,0,0,0,6,9,8,9,0,7,8,28,3,0,3,10,3,19,3,7,0,6,7,5,0,0,0,25,0,0,0,0,0,0,1048.txt
0,0,0,0,9,9,4,5,5,4,1,1,0,4,0,10,3,20,26,3,29,13,17,23,20,4,0,0,0,7,6,9,8,9,2,7,4,28,3,0,0,2,19,19,20,28,15,19,24,6,22,20,4,25,4,18,21,23,6,17,1051.txt
0,0,0,0,9,0,4,5,5,7,17,8,0,0,0,10,7,19,6,3,0,0,0,0,20,4,13,24,17,0,6,9,8,9,22,3,4,3,3,5,17,2,26,19,28,16,22,1,16,15,0,0,0,13,0,7,7,10,9,11,1054.txt
0,0,8,0,19,0,4,5,5,7,17,8,8,13,7,10,7,19,6,3,0,0,0,0,6,25,3,8,4,22,16,2,30,2,18,7,8,28,3,7,3,10,3,19,3,13,22,30,13,26,0,0,0,25,0,13,11,22,21,24,1057.txt
0,0,0,0,9,0,4,5,5,7,14,20,0,4,0,10,17,16,29,3,10,20,21,15,20,4,3,3,3,1,6,21,21,10,25,7,4,28,3,7,17,3,16,19,15,3,3,3,3,2,1,28,10,8,16,5,5,4,24,2,1059.txt
0,0,0,0,9,9,4,5,5,4,14,20,0,4,0,10,3,20,26,3,29,1,17,23,20,4,0,0,0,8,6,9,8,9,0,7,4,28,3,0,0,2,19,19,20,7,0,6,7,5,1,1,10,25,16,0,0,0,0,0,1060.txt
0,0,0,0,9,0,14,9,0,25,0,0,0,0,0,0,30,26,0,3,0,0,0,0,10,0,0,0,0,0,22,23,23,16,2,4,18,24,15,20,0,11,19,29,20,5,15,19,5,18,26,10,18,8,2,18,26,12,15,16,1064.txt
0,0,0,0,9,0,4,5,5,7,17,8,0,0,0,10,7,19,6,3,0,0,0,0,20,4,0,0,0,0,6,9,8,9,0,7,4,28,3,0,0,2,19,19,20,7,0,6,7,5,0,0,0,25,0,0,0,0,0,0,1069.txt
0,0,0,0,9,0,4,5,5,7,17,8,0,0,0,10,7,19,6,3,0,0,0,0,20,4,0,0,0,0,6,9,8,9,0,7,4,28,3,0,0,2,19,19,20,7,0,6,7,5,0,0,0,25,0,0,0,0,0,0,1071.txt
0,0,0,0,9,0,4,5,5,7,17,8,0,0,0,10,7,19,6,3,0,0,0,0,20,4,0,0,0,0,6,9,8,9,2,7,4,28,3,0,0,2,19,19,20,21,15,19,23,6,0,0,0,25,0,23,21,13,6,3,1073.txt
0,0,0,0,9,0,4,5,5,7,17,8,8,13,7,10,7,29,6,3,6,5,5,6,20,4,14,22,15,22,6,13,13,14,25,8,8,7,3,25,3,10,3,19,3,7,18,6,7,5,28,27,26,25,21,2,2,6,2,8,1075.txt
0,0,0,0,9,0,4,5,5,7,17,8,0,0,0,10,7,26,6,3,0,0,0,0,29,4,16,24,17,0,25,30,9,17,22,27,20,11,23,22,17,17,27,19,25,13,29,30,1,26,0,0,0,13,0,23,25,13,18,16,1076.txt
0,0,0,0,9,0,4,5,5,7,17,8,0,0,0,10,7,19,6,3,0,0,0,0,11,4,0,0,0,0,14,6,6,18,22,1,1,1,8,16,3,12,3,19,3,16,24,30,18,9,0,0,0,30,0,12,18,29,18,13,1078.txt
0,0,0,0,9,0,4,5,5,7,17,8,0,0,0,10,7,19,6,3,0,0,0,0,7,4,0,0,0,0,17,6,6,21,2,14,14,16,17,8,0,2,19,19,20,21,15,19,23,11,0,0,0,25,0,7,7,10,6,11,1080.txt
16,3,16,20,9,2,21,20,17,2,17,8,8,13,7,20,7,19,6,2,6,5,5,6,20,7,3,3,3,21,6,2,30,2,26,7,4,28,3,7,6,24,4,9,4,24,3,15,30,29,30,17,3,8,27,4,4,6,23,9,1082.txt
0,0,0,0,9,0,4,5,5,7,17,8,0,0,0,10,7,19,6,3,0,0,0,0,20,4,0,0,0,0,6,9,8,9,0,7,4,28,3,0,0,2,19,19,20,7,0,6,7,5,0,0,0,25,0,0,0,0,0,0,1084.txt
0,0,0,0,13,0,4,5,5,7,17,8,0,0,0,10,7,19,6,3,0,0,0,0,3,4,3,3,3,0,17,6,6,21,13,9,23,9,17,8,3,12,3,19,3,9,28,28,9,10,0,0,0,8,0,7,7,10,9,11,1086.txt
0,0,0,0,9,0,14,9,16,0,0,0,16,2,7,12,29,29,0,3,6,5,5,2,21,0,0,0,0,22,6,13,13,14,0,8,8,7,4,0,6,10,4,29,4,7,0,6,7,0,16,10,18,5,7,0,0,0,0,0,1088.txt
24,0,13,29,3,9,7,14,25,16,11,18,28,28,24,11,3,20,17,30,30,21,17,23,10,10,23,19,19,23,22,6,6,16,12,14,23,14,22,22,13,2,23,8,23,2,2,7,24,15,22,20,10,20,16,29,28,13,13,22,1090.txt
0,0,0,0,9,0,4,5,5,7,17,8,8,16,7,10,7,19,6,3,27,2,10,13,20,4,3,30,4,29,6,2,2,2,25,7,26,28,3,7,26,10,27,19,25,3,3,3,3,2,28,17,25,8,26,5,5,4,24,2,1093.txt
0,0,0,0,9,0,4,5,5,7,17,8,8,16,7,10,7,29,6,3,15,17,10,24,20,4,0,0,0,22,6,2,30,2,12,7,2,28,3,0,15,21,15,19,14,21,15,7,23,1,3,18,3,25,21,7,7,10,8,11,1094.txt
0,0,0,0,13,0,4,5,5,7,17,8,8,13,28,10,7,19,6,3,2,2,2,6,20,4,3,3,3,22,2,2,2,2,25,7,4,28,3,7,3,3,3,19,3,7,3,6,7,5,28,17,26,5,27,2,2,6,2,6,1096.txt
0,0,0,0,9,0,4,5,5,7,17,8,6,0,4,10,7,25,6,30,0,0,0,0,12,1,11,5,8,0,13,30,9,17,2,1,1,1,1,16,0,15,19,7,20,21,15,19,23,4,0,0,0,25,0,10,18,20,9,29,1101.txt
0,0,0,0,9,0,4,5,5,7,17,8,0,0,0,10,7,19,6,3,0,0,0,0,20,4,0,0,0,0,6,9,8,9,19,7,4,28,3,0,0,2,19,19,20,16,28,30,12,15,0,0,0,8,0,13,12,26,14,25,1105.txt
0,0,0,0,9,0,4,5,5,7,17,8,0,0,0,10,7,19,6,3,0,0,0,0,20,4,0,0,0,0,6,9,8,9,0,7,4,28,3,0,0,2,19,19,20,7,0,6,7,5,0,0,0,3,0,0,0,0,0,0,1106.txt
29,0,13,29,22,14,26,1,24,13,1,1,6,6,4,11,6,6,11,29,10,7,1,1,15,10,8,16,29,7,18,18,7,22,8,30,13,27,17,8,12,2,13,14,13,9,8,8,10,17,6,6,9,3,11,15,24,13,12,15,1108.txt
0,0,0,0,9,0,4,5,5,7,17,8,0,0,0,10,7,19,6,3,0,0,0,0,20,4,0,0,0,0,6,9,8,9,2,7,4,28,3,0,0,2,19,19,20,21,15,19,23,1,0,0,0,25,0,10,12,20,6,25,1109.txt
0,0,0,0,9,0,4,5,5,7,9,7,6,4,20,10,3,20,26,1,29,13,17,23,10,4,11,5,8,4,22,6,6,16,2,13,1,13,10,16,0,2,19,19,20,21,15,20,23,1,1,1,4,25,4,7,7,10,18,11,1114.txt
0,0,16,20,9,2,21,2,17,2,17,8,0,0,0,19,7,19,6,3,0,0,25,28,20,4,16,22,15,0,6,9,8,9,25,7,4,28,3,15,27,3,26,9,29,24,3,15,30,29,0,0,0,24,0,5,5,6,24,9,1117.txt
0,0,0,0,9,0,4,5,5,7,17,8,0,0,0,10,7,19,6,3,0,0,0,0,20,4,0,0,0,0,6,9,8,9,0,7,4,28,3,0,0,2,19,19,20,7,0,6,7,5,0,0,0,13,0,0,0,0,0,0,1118.txt
0,0,0,0,9,0,4,5,5,7,17,8,0,0,0,10,7,19,6,3,0,0,0,0,20,4,0,0,0,0,6,9,8,9,0,7,4,28,3,0,0,2,19,19,20,7,0,6,7,5,16,10,18,25,2,0,0,0,0,0,1121.txt
0,0,0,0,9,0,4,5,5,7,17,8,0,0,0,10,7,19,6,3,0,0,0,0,7,4,0,0,0,0,6,9,8,9,2,25,16,4,27,8,0,2,19,19,20,21,15,19,23,4,0,0,0,25,0,10,13,20,9,29,1122.txt
0,0,0,0,9,0,4,5,5,7,17,8,0,0,0,10,7,19,6,3,0,0,0,0,20,4,0,0,0,0,6,9,8,9,0,7,4,28,3,0,0,2,19,19,20,7,0,6,7,5,0,0,0,30,0,0,0,0,0,0,1124.txt
0,0,0,0,9,0,4,5,5,7,9,7,0,4,0,10,17,16,4,3,30,21,1,15,20,4,3,3,3,8,6,9,8,9,25,7,4,28,3,7,3,2,3,19,3,7,18,6,7,5,19,5,5,9,23,4,4,6,23,9,1126.txt
0,0,0,0,13,0,4,5,5,7,17,8,8,13,7,10,7,19,6,3,6,5,5,6,20,4,3,3,3,22,6,2,30,2,25,7,4,28,3,7,14,2,26,19,26,24,3,15,30,29,28,17,25,8,27,2,2,6,2,9,1128.txt
0,0,0,0,9,0,4,5,5,7,27,10,23,21,14,10,1,30,9,12,10,20,12,1,12,4,11,5,8,1,30,21,21,10,22,25,16,18,24,20,0,3,19,19,20,16,29,1,16,15,1,1,4,30,4,7,7,10,18,11,1130.txt
0,0,0,0,9,0,4,5,5,7,17,8,0,0,0,10,7,19,6,3,0,0,0,0,10,4,3,24,17,0,22,30,9,16,1,13,20,13,8,22,3,17,3,19,3,13,29,30,18,26,0,0,0,13,0,23,3,13,18,30,1135.txt
0,0,0,0,9,0,4,5,5,7,17,8,8,13,11,10,7,19,6,3,15,8,10,6,20,4,3,3,3,22,6,2,2,2,1,7,4,28,3,7,3,2,3,19,3,16,22,27,16,15,28,17,26,13,27,13,18,29,18,13,1136.txt
0,0,0,0,9,0,4,5,5,7,17,8,0,0,0,10,7,19,6,3,0,0,0,0,20,4,3,3,3,0,6,9,8,9,25,7,4,28,3,7,0,2,19,19,20,7,3,6,7,5,0,0,0,8,0,5,5,7,24,9,1137.txt
0,0,11,4,1,5,26,17,19,9,26,10,23,28,14,26,1,16,29,30,10,20,12,1,1,4,8,19,19,1,21,24,25,28,22,16,28,21,28,27,17,2,27,19,25,16,22,1,16,15,1,1,13,13,16,20,3,13,6,30,1139.txt
0,0,13,29,4,14,7,1,8,30,1,1,6,4,4,11,17,16,4,30,10,23,1,15,11,24,11,16,11,6,14,29,9,18,22,13,20,13,9,24,3,17,3,7,3,13,26,29,16,26,1,28,14,8,9,20,26,3,18,21,1141.txt
0,0,0,0,13,0,4,5,5,7,17,8,13,24,15,10,7,19,6,8,6,5,5,6,15,10,18,25,22,30,17,8,7,21,18,27,20,11,17,8,12,3,13,5,13,9,11,11,13,10,13,25,23,8,30,15,24,30,11,15,1143.txt
0,0,0,0,9,0,4,5,5,0,0,0,8,13,7,10,29,29,0,3,6,5,5,6,20,0,0,0,0,22,6,2,30,2,0,8,2,7,3,0,3,10,3,0,3,7,0,6,7,5,30,18,3,13,21,0,0,0,0,0,1147.txt
0,0,0,0,9,15,0,6,22,16,27,20,25,23,7,0,28,10,29,26,30,21,12,15,21,0,0,0,0,1,15,11,13,13,26,2,2,30,2,25,2,14,2,0,2,7,0,6,7,5,1,30,5,1,5,4,4,7,23,5,1149.txt
0,0,0,0,13,0,4,5,5,7,17,8,8,13,7,10,7,19,6,3,6,5,5,6,20,4,12,3,3,22,2,10,11,12,25,7,4,28,3,7,3,2,3,19,3,7,3,6,7,5,0,0,0,8,0,2,2,6,2,8,1151.txt
0,0,0,0,9,0,4,5,5,7,17,8,0,0,0,10,7,19,6,3,0,0,0,0,7,4,0,0,0,0,17,16,16,21,2,4,16,18,30,8,0,2,19,19,20,21,15,19,23,4,16,10,18,25,2,7,7,10,9,11,1152.txt
0,0,0,0,9,0,4,5,5,7,17,8,0,0,0,10,7,19,6,3,0,0,0,0,20,4,0,0,0,0,6,9,8,9,0,7,4,28,3,0,0,2,19,19,20,7,0,6,7,5,16,10,18,12,2,0,0,0,0,0,1156.txt
0,0,0,0,13,0,4,5,5,25,0,0,8,2,11,10,29,29,0,3,2,15,2,2,21,0,3,3,3,22,2,11,13,13,25,7,2,28,4,7,11,10,13,28,7,3,18,3,3,2,30,17,3,8,27,2,2,7,2,2,1158.txt
0,0,0,0,13,0,4,5,5,7,17,8,8,13,7,10,7,19,6,3,6,5,5,6,20,4,3,3,3,7,6,2,2,2,25,7,4,28,3,7,27,12,26,9,26,24,3,15,30,29,8,9,13,9,16,5,5,6,24,9,1161.txt
0,0,0,0,9,9,4,5,5,9,1,1,0,4,0,10,3,20,26,3,29,13,3,23,12,4,0,0,0,1,6,9,8,9,2,13,14,13,10,22,0,17,19,19,20,2,15,19,2,26,1,30,4,13,4,23,3,25,8,22,1166.txt
0,0,16,24,9,2,21,2,17,2,0,0,8,16,7,19,0,19,0,3,27,17,10,13,21,19,3,30,4,20,6,2,29,2,10,7,6,28,2,7,26,21,25,12,24,27,5,18,30,28,27,27,25,6,29,24,5,7,28,7,1168.txt
29,23,10,29,11,2,20,14,30,12,20,16,22,26,10,1,20,7,5,21,22,4,7,5,10,8,26,6,9,14,22,18,7,16,11,21,21,23,17,13,8,7,8,21,19,13,9,9,10,26,11,12,23,16,10,9,14,19,19,26,1169.txt
0,0,0,0,9,0,4,5,5,7,17,8,6,0,20,10,7,19,6,8,0,0,0,0,12,4,24,5,8,7,6,9,8,9,2,21,21,23,9,13,0,2,19,19,20,21,15,19,23,6,6,6,9,25,11,6,6,20,4,10,1171.txt
0,0,0,0,9,0,4,5,5,7,17,8,0,0,0,10,7,19,6,3,0,0,0,0,20,4,0,0,0,0,6,9,8,9,0,7,2,28,3,0,0,10,19,19,20,7,0,6,7,5,0,0,0,25,0,0,0,0,0,0,1175.txt
0,0,0,0,9,0,4,5,5,7,17,8,6,4,4,10,7,19,6,1,15,8,10,13,15,4,8,5,8,1,17,6,6,21,22,1,1,1,1,8,3,2,3,19,3,16,22,25,20,9,1,28,10,8,8,13,12,29,6,25,1177.txt
23,0,13,10,4,30,7,17,24,30,22,25,23,4,19,26,25,14,15,30,30,21,21,22,10,8,17,17,19,6,22,29,9,16,16,14,23,14,17,22,12,18,9,8,13,13,28,29,9,26,19,5,14,17,17,29,28,13,9,22,1179.txt
0,0,0,0,9,0,4,5,5,0,0,0,8,13,7,10,29,19,0,3,6,5,5,6,21,0,0,0,0,22,6,2,2,2,0,8,2,7,5,0,15,10,15,29,14,7,0,6,7,5,3,18,3,26,27,0,0,0,0,0,1183.txt
0,0,13,29,4,30,26,1,30,16,1,1,6,6,20,26,21,16,4,11,10,23,12,14,30,4,11,5,8,24,21,5,5,28,20,13,22,13,18,22,6,2,4,6,4,16,27,30,16,15,1,1,10,29,16,13,18,22,13,29,1184.txt
14,3,13,10,4,5,15,17,28,9,26,10,23,17,14,26,1,30,4,6,3,21,12,19,10,6,7,18,19,23,22,18,7,16,20,14,23,14,11,22,6,21,4,30,4,13,23,1,1,18,8,9,4,20,4,14,25,13,18,14,1190.txt
0,0,13,29,4,0,7,1,24,7,17,8,6,4,4,26,7,19,6,9,6,5,5,6,11,10,18,25,22,27,14,30,9,18,17,14,20,14,17,24,3,21,3,5,3,13,28,29,28,26,24,26,22,8,30,30,22,13,13,21,1192.txt
0,0,0,0,9,0,4,5,5,7,17,8,0,0,0,10,7,19,6,3,0,0,0,0,20,4,3,3,3,0,6,9,8,9,22,7,4,28,3,7,0,12,19,19,20,16,10,10,16,15,0,0,0,12,0,23,3,13,26,16,1194.txt
0,0,0,0,9,0,4,5,5,7,17,8,0,0,0,10,7,19,6,3,0,0,0,0,18,4,14,24,17,0,6,20,20,19,13,9,20,9,9,22,26,9,26,19,26,13,22,30,16,26,0,0,0,29,0,13,16,28,9,29,1196.txt
0,0,0,0,9,0,4,5,5,7,17,8,8,8,28,10,7,19,6,3,6,5,5,8,20,4,3,3,3,22,6,2,2,2,25,7,4,28,3,7,3,2,3,19,3,7,3,6,7,5,0,0,0,8,0,5,5,6,24,9,1197.txt
0,0,0,0,9,0,4,5,5,7,17,8,0,0,0,10,7,19,6,3,0,0,0,0,20,4,0,0,0,0,6,9,8,9,0,7,4,28,3,0,0,2,19,19,20,7,0,6,7,5,0,0,0,11,0,0,0,0,0,0,1199.txt
0,0,24,20,13,2,21,20,17,2,17,8,8,13,11,20,7,19,6,3,6,5,5,6,20,4,3,3,3,22,2,2,2,2,25,7,4,28,3,7,3,12,3,9,3,24,3,15,30,29,30,17,3,8,27,2,2,6,2,8,1201.txt
0,0,0,0,9,0,4,5,5,7,17,8,0,0,0,10,7,19,6,3,0,0,0,0,20,4,0,0,21,0,6,9,8,9,0,7,4,28,3,4,0,2,19,19,20,24,12,15,30,29,0,0,0,8,0,0,17,9,22,4,1203.txt
0,0,0,0,9,0,4,5,5,7,17,8,0,0,0,10,7,19,6,3,0,0,0,0,20,4,0,0,0,0,6,9,8,9,0,7,4,28,3,0,0,2,19,19,20,7,0,6,7,5,0,0,0,25,0,0,0,0,0,0,1205.txt
28,0,11,29,1,11,20,14,1,14,19,17,7,23,9,11,26,24,10,8,30,26,1,19,15,8,29,26,27,25,17,14,17,21,18,11,20,11,21,8,11,12,13,16,7,9,30,23,9,10,24,26,23,22,30,6,6,30,4,10,1207.txt
0,0,0,0,20,0,30,11,10,0,0,0,4,5,6,0,0,0,0,26,8,6,5,6,6,27,16,23,16,22,6,11,12,13,3,2,27,30,2,25,2,10,2,0,2,0,5,12,0,23,3,27,3,1,28,24,5,2,28,8,1211.txt
0,0,0,0,9,0,4,5,5,7,17,8,0,0,0,10,7,19,6,3,0,0,0,0,20,4,0,0,0,0,6,9,8,9,2,7,4,28,3,0,0,2,19,19,20,29,15,19,24,1,0,0,0,25,0,28,21,30,6,17,1214.txt
0,0,0,0,9,0,4,5,5,7,17,8,0,0,0,10,7,19,6,3,0,0,0,0,20,4,0,0,0,0,6,9,8,9,0,7,4,28,3,0,0,2,19,19,20,7,0,6,7,5,0,0,0,25,0,0,0,0,0,0,1216.txt
0,0,0,0,9,0,4,5,5,7,17,8,0,0,0,10,7,19,6,3,0,0,0,0,20,4,0,0,0,0,6,9,8,9,0,7,4,28,3,0,0,2,19,19,20,7,0,6,7,5,0,0,0,30,0,0,0,0,0,0,1217.txt
0,0,0,0,9,14,4,5,5,4,9,7,7,4,4,10,14,16,26,30,29,14,12,15,20,4,11,18,11,6,6,9,8,9,22,7,2,28,3,0,0,17,19,19,20,13,28,30,16,26,22,5,10,25,9,29,28,13,9,22,1219.txt
0,0,0,0,16,0,0,6,22,0,0,0,25,16,7,0,0,0,0,3,15,15,10,24,2,16,16,2,2,29,15,2,2,2,25,3,6,3,2,5,12,0,9,0,13,23,3,17,29,30,27,24,26,1,26,26,5,4,30,5,1221.txt
29,0,11,29,1,11,7,14,1,13,1,1,6,4,4,27,17,16,15,9,10,23,21,22,7,10,18,25,22,7,18,6,6,22,13,14,20,14,17,8,16,12,23,5,23,16,10,10,9,15,8,9,13,17,16,18,28,13,9,22,1225.txt
0,0,0,0,9,0,4,5,5,7,17,8,0,0,0,10,7,19,6,3,0,0,0,0,20,4,0,0,0,0,6,9,8,9,0,8,8,7,3,0,0,10,19,19,20,7,0,6,7,5,0,0,0,25,0,0,0,0,0,0,1228.txt
0,0,16,20,9,2,21,2,17,21,17,8,11,13,19,20,7,26,6,8,6,5,5,6,15,4,8,5,8,22,17,23,23,21,17,16,18,24,15,19,27,11,26,9,26,13,30,30,9,26,26,16,27,9,2,13,12,26,9,28,1230.txt
0,0,0,0,9,9,4,5,5,4,27,25,23,4,19,10,3,20,26,29,29,14,17,23,20,4,8,19,11,7,6,9,8,9,2,7,4,28,3,0,0,2,19,19,20,2,13,19,24,1,22,20,5,25,23,29,3,13,11,22,1234.txt
0,0,0,0,9,0,4,5,5,7,17,8,0,0,0,10,7,19,6,3,0,0,0,0,12,4,0,0,0,0,21,6,6,28,2,23,14,14,10,22,0,2,19,19,20,21,15,19,23,4,0,0,0,25,0,7,7,10,9,11,1237.txt
0,0,1,29,3,9,7,1,11,4,9,7,6,4,4,11,3,20,26,11,29,13,17,23,12,1,18,25,22,1,13,30,9,17,2,1,23,1,17,24,15,15,15,5,14,4,15,19,4,4,1,1,8,0,17,10,16,20,7,25,1239.txt
29,23,11,4,1,11,7,29,1,14,13,13,12,24,15,27,16,24,16,8,4,19,22,16,15,8,18,25,22,27,11,23,23,5,18,17,18,21,15,17,5,5,8,16,9,9,30,1,15,10,24,26,23,22,30,15,24,30,11,21,1241.txt
0,0,0,0,9,0,14,9,22,25,0,0,4,5,28,12,30,19,0,3,6,5,6,7,15,18,3,3,3,22,17,25,26,21,17,28,30,24,26,8,12,12,13,0,13,16,1,1,22,15,30,17,3,8,27,13,12,28,18,25,1243.txt
21,0,11,4,1,11,7,8,1,13,13,13,12,4,15,30,24,1,4,29,10,23,18,22,15,10,1,1,1,1,8,6,6,4,15,14,20,16,1,14,1,1,1,1,1,16,1,28,22,15,1,28,6,20,16,11,12,21,18,25,1245.txt
0,0,0,0,9,0,4,5,5,7,17,8,3,16,8,10,7,26,6,1,15,17,10,24,30,10,18,25,22,2,29,16,16,17,22,28,29,18,30,20,17,21,27,5,25,13,27,30,1,26,30,17,3,28,21,7,7,10,18,11,1249.txt
0,0,0,0,9,0,4,5,5,7,17,8,0,4,0,10,7,26,6,3,0,0,0,0,10,4,0,0,0,11,22,30,9,16,2,23,23,14,10,21,0,21,19,19,20,29,15,19,24,4,22,22,4,25,4,29,26,25,9,22,1251.txt
0,0,24,2,13,14,21,20,17,16,26,25,9,22,19,19,8,8,9,30,10,25,11,1,11,10,10,20,12,3,14,16,16,18,20,22,28,20,29,1,11,17,13,24,7,13,28,22,25,26,4,4,7,8,8,19,20,13,16,30,1254.txt
0,0,0,0,9,0,4,5,5,7,17,8,12,0,15,10,7,19,6,29,0,0,0,0,7,23,30,26,28,0,3,27,16,22,15,26,16,25,30,19,0,2,19,5,20,16,1,28,22,15,2,10,18,8,2,12,13,22,9,25,1255.txt
0,0,0,0,9,0,4,5,5,25,0,0,8,15,7,10,29,19,0,3,28,15,10,8,21,0,3,3,3,2,6,13,13,14,25,7,4,28,2,7,11,2,13,0,7,7,18,6,7,5,0,0,0,5,0,2,2,4,2,2,1267.txt
0,0,11,4,1,0,26,29,1,7,17,8,12,28,15,27,7,19,6,29,0,0,0,0,7,23,18,25,22,1,17,5,5,21,15,1,20,1,1,8,6,3,4,5,4,16,1,27,22,15,1,28,13,8,16,20,29,13,8,16,1271.txt
29,13,11,4,1,11,7,17,1,13,6,13,13,4,15,26,6,6,30,11,19,22,21,20,1,10,1,1,1,1,29,23,23,29,8,28,18,18,15,27,1,1,1,1,1,30,8,8,11,13,1,29,15,3,15,23,20,13,12,30,1274.txt
0,0,0,0,9,0,4,5,5,7,17,8,0,0,0,10,7,19,6,3,0,0,0,0,20,4,0,0,0,0,6,9,8,9,0,7,4,28,3,0,0,2,19,19,20,7,0,6,7,5,0,0,0,25,0,0,0,0,0,0,1276.txt
29,0,11,4,1,11,7,29,1,14,6,13,13,4,15,29,17,24,11,9,10,19,28,16,15,10,18,25,22,26,18,25,26,22,13,17,30,21,26,19,16,27,30,5,23,10,28,1,9,14,10,11,22,17,30,23,28,13,9,16,1278.txt
0,0,0,0,9,0,4,5,5,7,17,8,0,0,0,10,7,19,6,3,0,0,0,0,7,4,3,3,3,0,3,16,16,3,15,17,28,18,30,8,0,2,19,19,20,16,1,27,11,15,0,0,0,8,0,7,7,10,18,11,1280.txt
29,9,11,29,1,30,26,28,18,16,1,1,21,21,4,11,1,16,15,29,18,23,1,1,4,11,19,27,19,23,23,18,7,11,13,14,12,14,1,30,22,19,20,14,17,16,28,28,9,16,8,9,19,17,15,20,26,13,16,21,1283.txt
29,23,11,4,1,11,26,17,1,13,6,13,13,10,15,26,26,24,10,8,4,19,12,19,10,10,18,25,22,26,12,18,7,16,17,21,21,23,17,13,5,5,7,17,9,1,11,11,9,3,24,25,23,8,30,9,14,19,11,25,1285.txt
16,3,20,2,9,2,21,19,17,21,30,2,0,0,0,19,22,21,24,19,24,27,29,27,20,28,3,10,10,16,6,20,20,10,25,7,4,28,3,7,14,27,27,12,25,3,3,3,3,2,15,10,18,8,2,5,5,4,24,9,1287.txt
0,0,0,0,9,0,4,5,5,7,17,8,0,0,0,10,7,19,6,3,0,0,0,0,20,4,0,0,0,0,6,9,8,9,0,7,4,28,3,0,0,2,19,19,20,7,0,6,7,5,0,0,0,3,0,0,0,0,0,0,1288.txt
3,23,11,4,1,11,11,29,1,13,6,13,13,18,15,27,15,16,30,9,3,19,21,16,15,10,18,25,22,27,4,25,26,5,14,26,30,21,26,17,5,5,7,5,9,12,28,29,10,14,13,25,24,20,22,22,28,24,9,23,1290.txt
29,23,11,29,1,11,7,13,1,13,19,17,21,4,10,8,24,24,16,8,12,23,22,16,4,10,18,25,22,7,23,6,6,5,19,27,20,11,17,12,5,5,7,22,9,9,30,30,9,10,6,6,9,22,11,18,26,12,15,22,1292.txt
0,0,0,0,9,9,4,5,5,9,27,20,0,4,0,10,3,20,30,3,7,21,17,23,10,4,0,0,0,7,6,9,8,9,12,25,16,19,28,20,25,2,19,19,20,5,15,7,5,15,19,20,13,13,16,29,26,13,9,16,1295.txt
0,29,13,10,22,14,26,8,8,30,14,10,23,6,14,30,6,6,4,12,10,23,18,1,15,23,8,19,11,1,3,5,5,3,8,1,13,1,1,8,3,2,3,7,3,16,8,8,16,15,1,28,6,3,8,20,25,13,18,30,1297.txt
0,0,0,0,9,0,4,5,5,7,17,8,0,4,0,10,7,19,6,3,0,0,0,0,20,4,3,9,5,7,6,20,20,19,25,7,4,28,3,7,27,2,29,19,26,7,3,6,7,5,6,6,9,8,11,5,5,6,24,9,1300.txt
29,0,13,29,3,9,27,13,11,4,1,1,6,6,20,13,3,20,27,30,29,13,3,23,12,13,24,19,11,23,25,18,7,17,9,21,21,23,9,21,20,16,17,14,16,6,14,7,6,19,7,7,8,17,17,21,20,3,17,16,1302.txt
0,0,0,0,9,0,4,5,5,7,17,8,0,0,0,10,7,19,6,3,0,0,0,0,20,4,0,0,0,0,6,9,8,9,0,7,4,28,3,0,0,2,19,19,20,7,0,6,7,5,0,0,0,25,0,0,0,0,0,0,1303.txt
0,0,0,0,9,0,4,5,5,7,17,8,0,0,0,10,7,19,6,3,0,0,0,0,20,4,3,3,3,0,6,20,20,10,25,7,4,28,3,7,3,12,3,19,3,3,3,3,3,2,0,0,0,30,0,5,5,4,24,2,1305.txt
0,0,0,0,9,0,4,5,5,28,0,0,0,0,0,10,30,29,0,3,0,0,0,0,21,0,0,0,0,0,6,9,8,9,2,7,2,28,4,0,0,17,19,29,20,17,15,19,8,4,0,0,0,0,0,18,10,13,9,22,1307.txt
0,3,20,2,13,2,2,20,2,2,17,8,8,13,28,19,7,19,6,3,6,5,5,6,9,4,3,30,4,19,6,2,30,2,25,6,10,8,12,26,14,3,27,12,25,24,3,15,30,2,28,17,25,30,27,5,5,4,24,9,1309.txt
0,0,0,0,9,0,4,5,5,7,17,8,0,0,0,10,7,19,6,3,0,0,0,0,10,4,0,0,0,0,22,23,23,16,2,16,18,21,15,20,0,2,19,19,20,21,15,19,23,4,0,0,0,25,0,28,21,30,9,17,1311.txt
0,0,0,0,9,0,4,5,5,7,17,8,0,0,0,10,7,19,6,3,0,0,0,0,20,4,0,0,0,0,6,9,8,9,0,7,4,28,3,0,0,2,19,19,20,7,0,6,7,5,0,0,0,25,0,0,0,0,0,0,1314.txt
0,0,0,0,9,0,4,5,5,7,17,8,0,0,0,10,7,29,6,3,0,0,0,0,20,4,0,0,0,0,6,9,8,9,0,7,2,28,3,0,0,10,19,19,20,7,0,6,7,5,0,0,0,25,0,0,0,0,0,0,1315.txt
0,0,0,0,9,0,14,9,0,0,0,0,8,13,7,0,0,26,0,3,6,5,5,6,21,18,0,0,0,22,6,2,2,2,12,8,2,7,4,0,15,15,28,29,28,4,15,7,4,4,30,18,3,30,27,10,16,20,9,29,1317.txt
0,0,0,0,13,0,4,5,5,7,17,8,8,13,7,10,7,19,6,3,6,5,5,6,20,4,3,3,3,22,6,2,2,2,25,7,4,28,3,7,3,2,3,19,3,7,3,6,7,5,30,17,3,30,27,5,5,6,24,7,1318.txt
0,0,0,0,9,0,4,5,5,7,17,8,0,0,0,10,7,19,6,3,0,0,0,0,20,4,0,0,0,0,6,9,8,9,0,8,4,7,3,0,0,2,19,19,20,7,0,6,7,5,16,2,2,30,2,0,0,0,0,0,1320.txt
0,0,0,0,9,0,4,5,5,7,17,8,0,0,0,10,7,19,6,3,0,0,0,0,20,4,0,0,0,0,6,9,8,9,0,7,4,28,3,0,0,2,19,19,20,7,0,6,7,5,0,0,0,25,0,0,0,0,0,0,1323.txt
0,0,0,0,9,0,4,5,5,7,17,8,0,0,0,10,7,19,6,3,0,0,0,0,20,4,0,0,0,0,6,9,8,9,0,7,4,28,3,0,0,2,19,19,20,3,0,3,3,2,16,2,28,8,2,0,0,0,0,0,1325.txt
0,0,0,0,13,0,14,9,16,25,0,0,8,13,7,0,30,19,0,3,6,5,5,6,21,0,3,3,3,22,6,2,2,2,25,7,2,28,4,7,12,10,13,29,13,24,3,15,30,29,30,17,3,8,27,5,5,6,24,9,1327.txt
0,0,16,20,9,2,21,20,17,2,17,8,8,13,7,23,7,19,6,3,6,5,5,6,20,4,22,3,3,22,6,15,11,15,14,7,4,28,3,7,26,12,26,9,29,9,30,30,10,15,28,17,25,30,21,13,16,22,9,28,1329.txt
0,0,0,0,13,11,4,5,5,29,1,1,8,4,7,10,17,24,15,3,10,21,21,14,21,0,3,3,3,6,2,2,30,2,15,7,2,28,4,7,12,17,9,29,13,20,27,29,22,19,8,9,14,8,17,23,26,13,18,16,1331.txt
0,0,0,0,9,0,4,5,5,7,17,8,0,0,0,10,7,19,6,3,0,0,0,0,20,4,3,3,3,0,6,9,8,9,25,7,4,28,3,7,14,2,27,19,25,7,7,6,7,5,0,0,0,8,0,2,2,4,2,6,1332.txt
0,0,0,0,9,0,4,5,5,7,17,8,0,4,0,10,7,19,6,3,0,0,0,0,16,4,0,0,0,24,25,25,26,17,22,28,30,21,30,27,0,17,19,19,20,13,1,22,16,26,1,30,10,13,9,29,20,13,16,22,1335.txt
21,0,13,10,4,0,26,17,8,6,17,8,11,10,19,13,7,19,6,11,6,5,5,6,1,10,11,6,9,1,28,16,16,17,15,28,30,24,13,27,22,19,20,20,17,13,1,29,22,26,7,7,8,8,9,11,16,21,13,25,1337.txt
0,0,0,0,9,0,4,5,5,7,17,8,0,0,0,10,7,19,6,3,0,0,0,0,7,4,3,3,3,0,3,18,7,22,13,14,23,27,17,8,14,2,26,19,26,10,27,27,9,15,0,0,0,8,0,23,24,30,13,21,1339.txt
0,0,0,0,9,0,4,5,5,7,17,8,0,0,0,10,7,19,6,3,0,0,0,0,7,4,0,0,0,0,6,9,8,9,2,1,25,1,1,8,0,2,19,19,20,2,15,19,2,4,0,0,0,25,0,23,3,13,9,22,1341.txt
0,0,0,0,9,0,4,5,5,7,17,8,0,0,0,10,7,19,6,3,0,0,0,0,20,4,0,0,0,0,6,9,8,9,0,7,4,28,3,0,0,2,19,19,20,7,0,6,7,5,0,0,0,8,0,0,0,0,0,0,1344.txt
0,0,0,0,9,0,4,5,5,7,17,8,0,0,0,10,7,19,6,3,0,0,0,0,20,4,0,0,0,0,6,9,8,9,0,7,2,28,3,0,0,10,19,19,20,7,0,6,7,5,16,10,18,25,2,0,0,0,0,0,1346.txt
0,0,0,0,9,0,4,5,5,7,1,1,0,4,0,10,17,16,4,3,10,20,1,15,20,4,13,2,2,1,6,9,8,9,25,7,4,28,3,15,0,2,19,19,20,7,3,6,7,5,1,28,10,30,13,5,5,5,24,2,1348.txt
29,23,1,4,1,11,26,26,1,11,13,13,13,24,15,27,1,12,14,8,4,4,22,1,26,10,18,25,22,26,4,22,22,5,17,28,17,21,14,11,9,6,10,22,11,9,30,1,9,10,10,11,22,16,30,18,19,12,21,17,1351.txt
0,0,0,0,9,0,4,5,5,7,17,8,0,0,0,10,7,19,6,3,0,0,0,0,20,4,0,0,0,0,6,9,8,9,0,7,4,28,3,0,0,2,19,19,20,7,0,6,7,5,0,0,0,30,0,0,0,0,0,0,1352.txt
0,0,0,0,9,0,4,5,5,25,11,18,8,4,7,10,3,20,26,3,29,14,3,23,20,0,0,0,0,6,6,2,30,2,0,7,2,28,3,0,6,10,4,19,4,7,0,6,7,5,22,20,5,25,24,0,0,0,0,0,1354.txt
0,0,0,0,9,0,4,5,5,7,17,8,8,13,7,10,7,19,6,3,6,5,5,6,20,4,3,3,3,22,6,13,13,14,25,7,4,28,3,15,11,2,13,19,7,7,18,6,7,5,30,17,3,13,27,2,2,4,2,9,1356.txt
0,0,0,0,9,0,4,5,5,7,17,8,8,12,11,10,7,19,6,3,15,2,10,24,20,4,3,3,3,19,6,2,2,2,25,7,2,28,3,7,17,10,27,12,25,23,3,17,29,2,30,17,3,8,27,5,5,5,24,2,1358.txt
16,3,16,20,13,2,21,20,17,21,29,30,8,13,7,20,12,22,2,2,6,5,5,6,20,6,3,3,3,21,2,11,13,13,26,7,4,28,3,7,27,27,26,9,29,24,7,15,30,29,16,10,18,9,7,4,4,6,23,8,1360.txt
0,0,0,0,9,0,4,5,5,7,17,8,11,14,14,10,7,19,6,29,0,0,0,0,18,4,8,5,8,22,13,6,6,17,22,9,20,9,9,22,3,2,3,19,3,16,10,10,17,15,0,0,0,11,0,13,18,27,9,29,1362.txt
0,0,0,0,9,0,4,5,5,7,17,8,0,0,0,10,7,19,6,3,0,0,0,0,20,4,3,3,3,0,6,20,20,20,25,7,4,28,3,7,14,12,27,19,25,3,3,3,3,2,0,0,0,8,0,2,2,7,2,2,1364.txt
0,0,0,0,19,0,4,5,5,7,17,8,0,0,0,10,7,19,6,3,0,0,0,0,5,4,0,0,0,0,6,9,8,9,19,7,4,28,3,0,0,27,12,19,12,9,22,1,9,10,16,10,18,8,2,13,11,26,15,24,1367.txt
0,0,13,29,22,0,7,1,8,7,7,14,6,13,20,11,10,17,19,30,6,5,5,6,16,9,24,5,8,22,13,30,9,30,8,10,20,10,9,13,3,17,3,8,3,1,8,8,28,3,28,17,26,3,27,13,16,27,12,28,1368.txt
0,0,0,0,9,0,4,5,5,7,14,10,23,4,29,10,14,24,15,29,10,23,22,15,7,4,8,5,8,7,6,9,8,9,13,4,28,18,30,19,0,2,19,19,20,9,28,1,10,15,22,5,13,8,16,13,12,26,13,25,1371.txt
0,0,0,0,13,0,4,5,5,25,0,0,8,13,28,10,0,29,0,3,28,17,10,6,20,0,3,3,3,22,2,2,30,2,15,7,7,28,3,7,12,17,13,29,13,13,28,30,22,26,28,17,26,8,21,12,16,22,9,25,1372.txt
0,0,0,0,0,0,4,5,5,25,0,0,8,12,7,10,7,19,6,3,28,15,10,24,0,0,3,3,3,29,6,2,2,2,25,0,0,0,0,2,11,10,13,19,7,7,3,6,7,5,28,17,26,3,27,2,2,7,2,9,1375.txt
0,0,0,0,13,0,14,9,10,27,0,0,8,16,13,0,0,29,0,26,15,2,10,9,21,0,3,3,3,22,6,2,2,2,25,2,2,30,2,15,3,10,3,0,3,7,3,6,7,5,30,17,3,1,27,5,5,4,24,5,1377.txt
0,0,0,0,9,8,4,5,5,8,1,1,8,28,7,10,1,16,4,3,10,21,18,1,20,4,3,3,3,23,6,2,2,2,25,7,2,28,3,7,3,17,3,19,3,7,3,6,7,5,1,28,10,8,9,5,5,5,24,6,1379.txt
0,0,0,0,9,0,4,5,5,7,7,14,11,0,19,4,10,17,19,29,0,0,0,0,7,23,8,5,8,15,18,6,6,22,15,21,21,23,17,8,14,12,26,18,26,14,28,25,11,16,0,0,0,5,0,12,12,28,9,27,1380.txt
0,0,0,0,13,0,4,5,5,25,0,0,8,12,13,10,29,19,0,3,15,2,10,8,20,0,3,3,3,2,2,13,13,14,25,7,8,28,3,7,11,10,13,2,7,24,18,15,30,2,28,17,26,8,27,2,2,7,2,2,1383.txt
0,0,0,0,9,0,4,5,5,7,17,8,0,0,0,10,7,19,6,3,0,0,0,0,7,4,3,3,3,0,6,20,20,19,17,9,20,9,17,8,27,12,26,13,26,16,10,10,9,15,0,0,0,24,0,13,12,26,9,28,1389.txt
29,0,13,29,4,29,7,1,26,16,1,1,6,4,4,26,14,24,16,8,10,23,12,22,28,4,24,13,11,7,28,6,6,30,19,14,20,14,9,21,0,24,19,19,20,9,26,30,9,10,6,6,9,22,11,18,26,12,9,16,1390.txt
0,0,0,0,9,0,4,5,5,7,17,8,0,0,0,10,7,19,6,3,0,0,0,0,20,4,3,24,17,0,6,20,20,19,25,7,4,28,3,7,14,12,26,19,26,24,3,15,30,29,0,0,0,30,0,5,5,6,24,9,1392.txt
0,0,0,0,9,0,4,5,5,7,17,8,8,13,7,10,7,29,6,3,6,5,5,6,20,4,0,0,0,22,6,2,2,2,0,8,2,7,3,0,15,10,15,19,14,7,0,6,7,5,30,18,3,12,27,0,0,0,0,0,1395.txt
0,0,0,0,9,0,4,5,5,7,17,8,0,0,0,10,7,19,6,3,0,0,0,0,20,4,3,24,17,0,6,21,21,10,25,7,4,28,3,7,6,2,4,19,4,7,3,6,7,5,0,0,0,13,0,2,2,4,2,2,1396.txt
0,0,0,0,9,0,4,5,5,7,17,8,8,13,7,10,7,19,6,3,6,5,5,6,20,4,16,22,15,22,6,15,11,15,19,7,4,28,3,7,12,2,13,19,22,10,30,27,9,15,30,17,3,9,21,13,12,22,9,28,1398.txt
0,0,0,0,9,0,4,5,5,7,1,1,0,4,0,10,28,16,4,3,10,21,12,15,20,4,3,3,3,1,6,9,8,9,25,7,4,28,3,7,0,2,19,19,20,7,18,6,7,5,19,5,13,13,16,2,2,5,2,9,1400.txt
0,0,0,0,13,0,14,9,22,25,0,0,8,13,7,12,30,19,0,3,6,5,5,6,21,0,3,3,3,22,6,2,30,2,25,7,4,28,5,7,12,2,13,29,13,24,3,15,30,29,28,17,26,3,21,5,5,6,24,9,1402.txt
0,0,0,0,9,0,4,5,5,7,17,8,0,0,0,10,7,19,6,3,0,0,0,0,20,4,3,3,3,0,6,20,20,10,15,7,4,28,3,7,0,12,19,19,20,16,22,28,22,15,0,0,0,8,0,13,15,28,9,25,1405.txt
0,0,0,0,9,0,4,5,5,7,17,8,0,0,0,10,7,19,6,3,0,0,0,0,20,4,0,0,0,0,6,9,8,9,0,7,4,28,3,0,0,2,19,19,20,7,0,6,7,5,0,0,0,25,0,0,0,0,0,0,1407.txt
0,0,0,0,9,0,4,5,5,7,17,8,0,0,0,10,7,19,6,3,0,0,0,0,20,4,0,0,0,0,6,9,8,9,0,7,4,28,3,0,0,2,19,19,20,7,0,6,7,5,0,0,0,30,0,0,0,0,0,0,1409.txt
29,29,13,10,22,11,26,29,24,13,22,13,13,24,15,27,6,6,10,29,10,7,20,1,15,10,10,12,13,30,4,23,23,5,8,28,18,24,15,17,5,5,7,21,9,9,8,8,13,10,14,15,23,3,30,15,24,30,12,15,1412.txt
0,0,0,0,9,0,4,5,5,7,17,8,0,0,0,10,7,19,6,3,0,0,0,0,20,4,3,3,3,1,6,9,8,9,25,7,4,28,3,5,0,2,19,19,20,7,3,6,7,5,1,28,10,13,16,5,5,5,24,9,1416.txt
0,0,0,0,13,0,4,5,5,7,17,8,8,13,28,10,7,19,6,3,28,15,10,6,20,4,3,3,3,22,6,2,2,2,25,7,2,28,3,25,12,10,13,19,13,24,3,15,30,2,30,17,3,13,27,2,2,4,2,9,1418.txt
0,0,0,0,9,0,4,5,5,7,15,23,10,4,18,10,3,20,26,29,29,13,17,23,20,4,21,26,23,8,6,9,8,9,2,7,4,28,3,0,0,2,19,19,20,21,15,19,23,4,22,20,10,25,16,7,7,10,9,11,1421.txt
16,3,16,20,9,2,21,20,17,2,29,30,0,0,0,19,22,21,24,18,25,28,25,28,20,7,3,10,10,17,6,20,20,19,25,7,4,28,3,7,26,12,26,13,28,24,7,15,30,28,0,0,0,8,0,5,5,7,24,9,1422.txt
0,0,0,0,9,0,4,5,5,7,17,8,0,0,0,10,7,19,6,3,0,0,0,0,20,4,0,0,0,0,6,9,8,9,2,7,4,28,3,0,0,2,19,19,20,21,15,19,23,4,0,0,0,25,0,7,7,10,9,11,1425.txt
0,0,0,0,9,0,4,5,5,25,0,0,8,16,7,10,0,19,0,3,15,9,10,9,30,16,0,0,0,29,6,2,29,2,8,9,1,9,8,16,3,21,3,29,3,13,8,8,18,26,30,17,3,26,21,8,18,29,18,13,1427.txt
0,0,0,0,9,0,4,5,5,7,17,8,0,0,0,10,7,19,6,3,0,0,0,0,20,4,0,0,0,0,6,9,8,9,22,7,4,28,3,0,0,2,19,19,20,16,24,27,1,15,0,0,0,30,0,13,8,29,18,12,1429.txt
0,0,0,0,9,0,4,5,5,7,17,8,0,0,0,10,7,19,6,3,0,0,0,0,20,4,0,0,0,0,6,9,8,9,0,7,4,28,3,0,0,2,19,19,20,7,0,6,7,5,0,0,0,25,0,0,0,0,0,0,1431.txt
0,0,0,0,9,29,4,5,5,16,1,1,6,25,20,10,21,16,4,12,10,23,12,14,18,4,11,5,8,24,21,5,5,28,22,21,21,23,18,22,3,2,3,19,3,16,27,30,16,15,19,5,10,30,16,13,18,22,8,29,1433.txt
0,0,0,0,13,0,4,5,5,25,0,0,0,0,0,10,29,19,0,3,0,0,0,0,20,0,3,3,3,0,6,21,21,19,25,7,4,28,3,7,3,2,3,29,3,7,18,6,7,5,0,0,0,3,0,2,2,6,2,8,1434.txt
0,0,0,0,13,0,4,5,5,25,0,0,0,0,0,10,29,19,0,3,0,0,0,0,20,0,3,3,3,0,6,21,21,19,25,7,4,28,3,7,3,2,3,29,3,7,18,6,7,5,0,0,0,3,0,2,2,6,2,8,1436.txt
0,0,0,0,9,0,30,9,16,0,1,1,8,4,7,0,18,30,10,3,30,23,12,15,21,0,14,22,15,6,6,13,13,14,25,8,8,7,2,25,27,10,26,0,26,7,18,6,7,23,6,6,5,5,24,2,2,6,2,9,1439.txt
0,0,0,0,9,0,4,5,5,7,17,8,0,0,0,10,7,19,6,3,0,0,0,0,20,4,0,0,0,0,6,9,8,9,25,7,4,28,3,7,3,2,3,19,3,7,0,6,7,5,0,0,0,25,0,5,5,7,24,9,1441.txt
0,0,0,0,9,0,4,5,5,7,17,8,0,0,0,10,7,19,6,3,0,0,0,0,7,4,3,3,3,0,17,6,6,21,22,9,1,9,8,8,0,2,19,19,20,16,22,27,16,15,0,0,0,30,0,13,12,29,9,13,1442.txt
0,0,0,0,9,0,4,5,5,7,17,8,8,8,7,10,7,19,6,3,21,2,27,8,20,4,3,3,3,29,6,2,29,2,25,7,26,28,3,7,3,10,3,19,3,7,3,6,7,5,28,27,26,25,21,2,2,4,2,2,1444.txt
0,0,0,0,13,0,4,5,5,7,17,8,8,13,28,10,7,29,6,3,2,2,2,6,20,4,3,3,3,22,2,2,2,2,25,7,8,28,3,7,12,10,13,19,13,24,3,15,30,2,28,17,26,13,27,5,5,7,24,9,1446.txt
0,0,0,0,13,0,4,5,5,7,17,8,8,12,13,10,7,19,6,3,15,15,10,9,0,4,3,3,3,22,6,2,30,2,25,0,0,0,0,2,12,12,13,19,22,3,3,3,3,28,28,17,26,8,27,5,5,7,24,5,1448.txt
0,0,0,0,9,0,4,5,5,7,17,8,0,0,0,10,7,19,6,3,0,0,0,0,20,4,0,0,0,0,6,9,8,9,0,7,4,28,3,0,0,2,19,19,20,7,0,6,7,5,0,0,0,25,0,0,0,0,0,0,1451.txt
0,0,0,0,9,0,4,5,5,7,17,8,0,0,0,10,7,19,6,3,0,0,0,0,20,4,0,0,0,0,6,9,8,9,25,7,4,28,3,7,0,2,19,19,20,7,0,6,7,5,16,10,18,8,2,5,5,4,24,9,1453.txt
0,0,0,0,13,11,4,5,5,13,13,13,13,22,15,10,17,14,11,9,10,26,28,22,0,4,30,26,28,30,2,11,14,13,14,0,0,0,0,2,11,12,13,9,7,11,28,29,10,12,24,25,24,19,22,23,24,13,11,16,1454.txt
29,0,13,29,4,8,7,1,26,8,1,1,6,4,20,11,24,16,8,12,10,23,1,15,30,10,11,5,8,1,13,30,9,17,1,1,1,1,1,16,17,9,27,25,25,13,1,30,16,26,1,28,8,28,9,13,9,28,18,13,1456.txt
0,0,0,0,9,0,4,5,5,0,0,0,8,13,7,10,30,29,0,3,6,5,5,6,21,0,3,10,10,22,6,11,12,13,25,8,6,7,4,15,26,10,26,29,30,7,18,6,7,5,27,27,25,9,27,5,5,6,24,9,1458.txt
0,0,0,0,9,0,4,5,5,7,17,8,0,0,0,10,7,19,6,3,0,0,0,0,20,4,0,0,0,0,6,9,8,9,0,7,4,28,3,0,0,2,19,19,20,7,0,6,7,5,0,0,0,25,0,0,0,0,0,0,1460.txt
0,0,0,0,9,0,4,5,5,25,0,0,6,4,4,10,7,19,6,11,15,9,10,9,1,16,11,5,8,1,13,6,6,17,22,1,1,1,23,16,3,2,3,19,3,16,10,10,16,15,1,28,10,13,16,13,8,22,9,12,1462.txt
0,0,0,0,9,0,4,5,5,7,17,8,0,0,0,10,7,19,6,3,0,0,0,0,12,4,0,0,0,0,21,24,25,28,2,17,28,21,24,27,0,2,19,19,20,17,15,19,8,4,16,10,18,25,7,17,28,13,9,3,1465.txt
0,0,0,0,9,0,4,5,5,7,17,8,0,0,0,10,7,19,6,3,0,0,0,0,20,4,0,0,0,0,6,9,8,9,0,7,4,28,3,0,0,2,19,19,20,7,0,6,7,5,16,16,27,25,7,0,0,9,0,0,1467.txt
0,0,0,0,9,0,4,5,5,7,16,20,0,4,0,10,28,16,30,3,30,20,12,15,20,4,2,24,17,1,6,20,20,19,26,7,4,28,3,15,0,27,19,19,20,7,3,6,7,5,1,28,4,13,4,4,4,4,23,2,1469.txt
29,0,11,4,1,11,7,29,1,13,13,23,13,4,15,27,16,14,15,29,10,23,22,16,15,8,18,25,22,23,3,6,6,22,30,18,20,27,17,8,3,12,3,5,3,16,27,30,10,15,1,28,13,20,16,23,24,24,11,30,1470.txt
18,3,11,3,1,2,15,8,19,21,29,2,10,0,12,30,22,23,24,12,25,28,29,27,3,23,7,5,8,17,18,25,26,3,15,26,16,24,13,19,17,3,27,18,25,11,24,25,22,12,2,10,18,8,2,12,8,28,18,12,1473.txt
0,0,0,0,9,0,4,5,5,7,17,8,6,0,4,10,7,19,6,11,0,0,0,0,1,4,11,5,8,0,21,6,6,28,22,1,25,1,1,24,3,2,3,19,3,16,22,27,16,15,0,0,0,8,0,13,9,28,8,25,1475.txt
0,0,0,0,9,0,4,5,5,25,0,0,8,12,11,10,29,19,0,3,6,5,5,24,21,0,3,3,3,22,6,11,13,13,25,7,2,28,2,7,12,10,13,0,13,7,18,6,7,5,30,17,3,13,21,2,2,7,2,6,1477.txt
0,0,0,0,9,0,4,5,5,7,17,8,8,13,7,10,7,29,6,3,6,5,5,6,20,4,3,3,3,22,6,2,30,2,25,7,2,28,3,7,3,10,3,19,3,7,3,6,7,5,30,17,3,8,27,5,5,6,24,9,1480.txt
29,0,13,29,4,11,20,1,27,29,11,18,6,25,4,11,1,16,4,11,10,20,1,19,1,8,18,25,22,1,25,5,5,17,15,1,1,1,1,16,12,17,13,5,13,13,27,30,11,26,1,1,10,8,8,23,3,13,8,3,1482.txt
0,0,0,0,9,0,4,5,5,7,17,8,0,0,0,10,7,19,6,3,0,0,0,0,20,4,14,24,17,0,6,9,8,9,25,7,4,28,3,7,14,12,27,19,25,27,3,18,30,2,0,0,0,30,0,5,5,7,24,9,1484.txt
0,0,0,0,9,0,4,5,5,7,17,8,0,0,0,10,7,29,6,3,0,0,0,0,20,4,0,0,0,0,6,9,8,9,0,7,8,28,3,0,0,11,19,19,20,7,0,6,7,5,0,0,0,3,0,0,0,0,0,0,1487.txt
0,0,0,0,9,0,4,5,5,7,17,8,8,13,2,10,7,19,6,3,6,5,5,6,20,4,16,24,17,22,6,2,30,2,25,8,8,7,3,25,6,10,4,19,4,3,3,3,3,2,28,17,25,13,27,2,2,7,2,5,1490.txt
0,0,0,0,9,0,4,5,5,7,17,8,0,0,0,10,7,19,6,3,0,0,0,0,20,4,0,0,0,0,6,9,8,9,25,3,4,3,3,5,0,2,19,19,20,7,0,6,7,5,0,0,0,30,0,5,5,4,24,9,1491.txt
29,23,11,4,1,11,7,17,1,13,6,13,13,4,23,26,24,24,10,8,19,23,20,16,17,10,18,25,22,6,28,6,6,29,17,27,20,11,17,21,5,5,10,5,9,1,30,29,12,3,6,6,9,17,11,15,19,15,5,17,1494.txt
21,0,13,29,22,29,10,12,8,30,1,1,6,6,4,11,6,6,15,29,10,23,1,14,15,15,8,16,11,7,11,18,7,24,8,30,13,14,17,14,21,22,21,24,18,16,8,8,22,15,1,28,13,3,16,20,29,24,12,30,1497.txt
0,0,0,0,9,0,4,5,5,7,17,8,0,0,0,10,7,19,6,3,0,0,0,0,20,4,0,0,0,0,6,9,8,9,0,8,4,7,3,0,0,2,19,19,20,7,0,6,7,5,0,0,0,24,0,0,0,0,0,0,1499.txt
0,0,0,0,9,0,4,5,5,7,17,8,0,0,0,10,7,19,6,3,0,0,0,0,20,4,0,0,0,0,6,9,8,9,0,7,4,28,3,0,0,2,19,19,20,7,0,6,7,5,0,0,0,13,0,0,0,0,0,0,1502.txt
0,0,0,0,9,0,4,5,5,7,17,8,8,13,28,10,7,19,6,3,6,5,5,6,20,4,3,3,3,22,6,2,30,2,25,7,8,28,3,7,3,10,3,19,3,7,3,6,7,5,28,17,26,8,21,5,5,6,24,9,1504.txt
0,0,13,29,22,11,7,1,24,13,1,1,6,4,4,11,6,6,11,29,10,7,1,22,15,10,18,25,22,23,18,6,6,22,8,18,20,27,17,8,11,2,13,5,7,11,8,8,10,17,1,28,13,3,16,23,24,13,12,30,1505.txt
0,0,0,0,9,0,4,5,5,7,17,8,0,0,0,10,7,19,6,3,0,0,0,0,20,4,0,0,0,0,6,9,8,9,0,7,4,28,3,0,0,2,19,19,20,7,0,6,7,5,16,10,18,13,7,0,0,0,0,0,1507.txt
0,0,0,0,13,0,4,5,5,7,1,1,6,22,20,6,1,16,4,29,10,21,12,1,7,23,18,25,22,1,17,5,5,21,22,1,23,1,1,8,6,24,4,5,4,16,27,30,16,15,1,1,10,28,16,20,25,13,18,16,1509.txt
0,0,0,0,9,0,4,5,5,7,17,8,0,0,0,10,7,19,6,3,0,0,0,0,20,4,0,0,0,0,6,9,8,9,15,7,4,28,3,0,0,2,19,19,20,16,1,27,22,15,0,0,0,8,0,13,12,28,18,25,1511.txt
0,0,0,0,9,0,4,5,5,7,17,8,8,8,7,10,7,19,6,3,6,5,5,24,20,4,3,3,3,22,6,2,2,2,25,7,4,28,3,7,26,2,26,19,28,24,3,15,30,28,28,17,25,28,27,2,2,7,2,9,1513.txt
0,0,0,0,9,0,4,5,5,7,17,8,8,13,28,10,7,19,6,3,6,5,5,6,20,4,3,3,3,22,6,2,2,2,25,7,4,28,3,7,3,2,3,19,3,7,3,6,7,5,30,17,3,30,27,5,5,6,24,9,1515.txt
0,0,0,0,9,0,4,5,5,7,22,20,0,4,0,10,17,24,10,3,10,21,21,15,20,4,2,22,15,6,6,20,20,19,17,8,2,7,3,25,0,17,19,19,20,13,22,29,28,26,1,28,4,24,4,23,29,12,13,18,1518.txt
0,0,0,0,13,0,4,5,5,7,17,8,8,13,7,10,7,19,6,3,6,5,5,6,20,4,3,3,3,22,2,2,30,2,25,7,4,28,3,7,11,12,13,19,7,7,3,6,7,5,28,17,26,3,21,2,2,7,2,6,1519.txt
0,0,0,0,9,0,4,5,5,7,17,8,0,0,0,10,7,19,6,3,0,0,0,0,20,4,3,3,3,0,6,9,8,9,22,7,4,28,3,7,3,2,3,19,3,16,1,22,18,15,0,0,0,8,0,13,16,28,18,25,1521.txt
0,0,0,0,9,0,4,5,5,7,17,8,0,0,0,10,7,19,6,3,0,0,0,0,20,4,16,24,17,0,6,20,20,19,25,3,4,3,3,5,17,12,28,11,26,26,3,17,29,28,0,0,0,30,0,5,5,5,24,9,1523.txt
0,0,0,0,9,0,4,5,5,7,17,8,0,0,0,10,7,19,6,3,0,0,0,0,20,4,3,3,3,0,6,9,8,9,25,7,4,28,3,7,0,2,19,19,20,7,3,6,7,5,0,0,0,8,0,5,5,7,24,2,1526.txt
0,0,0,0,13,0,14,9,22,25,0,0,8,13,28,0,30,19,0,3,6,5,6,7,21,0,3,3,3,22,2,2,2,2,25,7,4,28,4,7,12,2,13,28,13,7,3,6,7,5,30,17,3,8,27,26,5,6,30,9,1528.txt
29,0,11,29,1,11,7,13,1,13,1,1,6,4,4,11,16,24,16,29,10,23,1,14,7,10,18,25,22,7,17,6,6,21,17,14,20,14,17,8,11,2,13,22,7,10,27,30,10,15,6,6,9,17,11,15,26,12,9,15,1529.txt
0,0,16,2,9,2,2,2,2,2,17,8,0,0,0,19,7,29,6,3,0,0,25,28,0,4,2,23,16,0,6,20,20,19,22,0,0,0,0,2,17,15,26,30,26,13,22,22,25,26,0,0,0,29,0,12,11,28,9,24,1532.txt
0,0,0,0,13,0,4,5,5,7,17,8,8,13,11,10,7,19,6,3,6,5,5,6,20,4,3,3,3,22,6,13,13,14,25,7,4,28,3,7,11,12,13,19,7,24,18,15,30,29,0,0,0,8,0,2,2,6,2,9,1534.txt
29,23,11,4,1,11,7,29,1,13,13,13,3,4,8,8,6,6,11,29,19,7,18,22,4,10,18,25,22,1,4,6,6,5,8,1,20,1,1,17,5,5,7,5,9,16,8,8,22,13,1,28,15,3,15,23,3,13,18,30,1536.txt
16,3,20,2,13,2,2,19,2,21,29,2,8,12,13,17,12,21,2,2,28,2,10,24,9,7,3,3,3,19,2,2,30,2,24,6,10,8,12,26,26,25,26,12,24,24,3,15,30,2,15,10,18,30,7,2,2,4,2,2,1538.txt
0,0,0,0,9,0,4,5,5,7,17,8,0,0,0,10,7,19,6,3,0,0,0,0,20,4,0,0,0,0,30,9,8,9,0,7,4,28,3,0,0,2,19,19,20,7,0,6,7,5,0,0,0,13,0,0,0,0,0,0,1540.txt
0,0,0,0,9,0,4,5,5,7,17,8,0,0,0,10,7,19,6,3,0,0,0,0,20,4,0,0,0,24,6,9,8,9,2,7,4,28,3,0,0,2,19,19,20,21,15,19,23,1,1,1,10,25,13,7,7,10,16,11,1543.txt
0,0,0,0,9,0,4,5,5,7,17,8,0,0,0,10,7,19,6,3,0,0,0,0,20,4,0,0,0,0,6,9,8,9,0,7,4,28,3,0,0,2,19,19,20,7,0,6,7,5,0,0,0,25,0,0,0,0,0,0,1545.txt
29,9,29,29,28,0,26,13,28,6,4,4,21,28,24,25,10,17,19,13,16,11,13,17,11,11,26,6,9,23,14,18,7,18,1,14,20,14,9,22,22,19,20,8,17,14,22,30,17,13,5,5,19,9,15,9,14,19,18,29,1546.txt
0,0,0,0,9,0,4,5,5,7,17,8,0,0,0,10,7,19,6,3,0,0,0,0,20,4,0,0,0,0,6,9,8,9,15,7,4,28,3,0,0,2,19,19,20,16,22,27,22,15,0,0,0,8,0,13,12,22,18,25,1548.txt
0,0,0,0,9,0,4,5,5,7,17,8,0,0,0,10,7,19,6,3,0,0,0,0,20,4,3,3,3,0,6,9,8,9,25,7,4,28,3,7,12,2,13,19,13,7,3,6,7,5,0,0,0,8,0,5,5,6,24,9,1551.txt
0,0,0,0,9,0,4,5,5,7,17,8,25,16,7,10,7,29,6,3,15,2,10,9,20,4,3,24,17,2,30,2,2,2,25,7,2,28,3,15,17,10,16,19,15,3,3,3,3,2,30,3,3,30,3,5,5,4,24,2,1552.txt
0,0,0,0,13,0,4,5,5,7,17,8,8,12,7,10,7,19,6,3,6,5,5,24,20,4,3,3,3,22,6,2,30,2,25,7,4,28,3,7,3,2,3,19,3,23,3,17,29,2,30,17,3,13,21,2,2,5,2,6,1556.txt
0,0,0,0,9,0,14,9,0,0,0,0,0,0,0,12,29,0,0,3,0,0,0,0,21,0,0,0,0,0,6,9,8,9,0,8,2,7,4,0,25,10,19,28,20,7,0,6,7,5,0,0,0,1,0,0,0,0,0,0,1558.txt
0,0,0,0,9,0,4,5,5,7,17,8,0,0,0,10,7,19,6,3,0,0,0,0,20,4,0,0,0,0,6,9,8,9,0,7,4,28,3,0,0,2,19,19,20,7,0,6,7,5,0,0,0,8,0,0,0,0,0,0,1561.txt
0,0,0,0,9,0,4,5,5,7,17,8,0,0,0,10,7,19,6,3,0,0,0,0,20,4,0,0,0,0,6,9,8,9,0,7,4,28,3,0,0,2,19,19,20,7,0,6,7,5,0,0,0,25,0,0,0,0,0,0,1563.txt
0,0,0,0,9,0,4,5,5,25,0,0,8,2,7,10,29,29,0,3,2,15,2,2,0,0,3,3,3,29,6,2,2,2,25,0,0,0,0,2,3,10,3,29,3,7,3,6,7,5,30,17,3,28,3,2,2,4,2,2,1565.txt
0,0,0,0,9,0,4,5,5,27,27,20,8,4,7,10,14,24,15,3,10,21,12,15,20,0,3,23,16,7,6,2,2,2,13,7,4,28,3,15,27,12,28,28,26,16,29,30,9,15,22,5,13,24,16,18,28,12,9,30,1567.txt
0,0,0,0,9,0,4,5,5,7,17,8,0,0,0,10,7,19,6,3,0,0,0,0,20,4,0,0,0,0,6,9,8,9,0,7,4,28,3,0,0,2,19,19,20,7,0,6,7,5,0,0,0,25,0,0,0,0,0,0,1570.txt
0,0,0,0,9,0,4,5,5,7,17,8,0,0,0,10,7,19,6,3,0,0,0,0,20,4,3,3,3,0,6,9,8,9,25,7,4,28,3,7,0,2,19,19,20,7,3,6,7,5,0,0,0,8,0,2,2,4,2,2,1572.txt
0,0,0,0,9,0,4,5,5,7,17,8,8,13,7,10,7,19,6,3,15,17,10,6,20,4,3,3,3,22,6,2,30,2,25,7,8,28,3,7,3,10,3,19,3,7,3,6,7,5,28,17,26,3,21,5,5,7,24,6,1574.txt
0,0,0,0,9,0,4,5,5,7,17,8,0,0,0,10,7,19,6,3,0,0,0,0,20,4,3,3,3,0,6,9,8,9,25,7,4,28,3,7,14,2,27,19,25,7,3,6,7,5,0,0,0,30,0,5,5,5,24,7,1581.txt
0,0,0,0,9,0,14,9,0,0,1,1,8,4,7,0,3,20,26,3,29,13,3,23,21,0,0,0,0,24,6,2,2,2,0,8,2,7,4,0,12,15,9,28,22,7,0,6,7,0,1,1,10,26,14,0,0,0,0,0,1583.txt
16,3,0,0,13,0,4,5,5,7,17,8,8,13,7,10,7,19,6,2,6,5,5,6,15,22,3,9,5,21,6,2,29,2,13,26,16,18,26,8,14,25,26,13,26,11,27,28,9,17,28,17,25,8,21,13,12,22,16,25,1585.txt
0,0,11,3,1,0,7,17,19,7,22,21,10,4,18,25,24,1,29,1,10,25,18,15,1,23,7,5,8,3,21,16,16,28,1,16,29,25,13,1,3,12,3,7,3,16,24,25,18,12,4,4,7,30,10,12,18,29,3,29,1587.txt
0,0,0,0,9,0,4,5,5,7,17,8,0,0,0,10,7,19,6,3,0,0,0,0,20,4,0,0,0,0,6,9,8,9,0,7,4,28,3,0,0,2,19,19,20,7,0,6,7,5,0,0,0,29,0,0,0,0,0,0,1589.txt
0,0,0,0,9,9,14,11,16,16,9,7,8,4,7,0,3,20,15,3,29,21,3,23,21,17,0,0,0,6,6,2,2,2,0,7,2,28,5,0,15,13,26,29,26,7,0,6,7,5,19,20,5,17,24,0,0,0,0,0,1590.txt
0,0,0,0,0,0,4,5,5,7,17,8,0,0,0,10,7,19,6,3,0,0,0,0,0,4,13,24,17,0,6,9,8,9,22,0,0,0,0,2,0,9,19,19,20,13,22,29,16,26,0,0,0,30,0,13,18,11,8,13,1594.txt
0,0,0,0,9,0,4,5,5,7,17,8,0,4,0,10,7,19,6,3,0,0,0,0,20,4,3,3,3,8,6,20,20,10,25,7,4,28,3,7,0,12,19,19,20,26,3,17,29,2,8,9,10,8,16,4,4,5,23,2,1596.txt
0,0,0,0,9,0,4,5,5,7,17,8,0,0,0,10,7,19,6,3,0,0,0,0,20,4,0,0,0,0,6,9,8,9,1,8,4,7,3,0,3,2,3,19,3,16,10,10,16,15,16,10,18,13,7,7,7,10,9,11,1598.txt
0,0,0,0,9,0,4,5,5,7,17,8,0,0,0,10,7,19,6,3,0,0,0,0,0,4,14,24,17,0,6,19,19,19,22,0,0,0,0,2,0,27,19,19,20,16,22,28,16,15,16,16,27,13,7,7,7,10,18,11,1600.txt
0,0,0,0,13,0,4,5,5,7,17,8,8,16,28,10,7,19,6,3,28,8,10,8,20,4,3,3,3,29,6,2,30,2,15,7,4,28,3,7,3,3,3,19,3,16,1,27,22,15,20,17,26,8,21,12,12,22,18,25,1602.txt
0,0,0,0,9,0,4,5,5,7,17,8,0,0,0,10,7,19,6,3,0,0,0,0,20,4,3,3,3,0,6,9,8,9,22,7,4,28,3,7,17,2,27,19,25,16,1,27,16,15,0,0,0,13,0,3,3,13,18,3,1604.txt
0,0,0,0,9,0,4,5,5,7,17,8,8,13,28,10,7,19,6,3,6,5,5,6,20,4,3,3,3,22,6,2,2,2,25,7,8,28,3,7,3,17,3,19,3,24,3,15,30,2,0,0,0,30,0,2,2,4,2,9,1605.txt
0,0,0,0,9,0,4,5,5,7,17,8,0,0,0,10,7,19,6,3,0,0,0,0,3,4,3,3,3,0,18,24,25,22,1,17,30,18,28,8,11,12,13,19,7,9,28,29,28,15,0,0,0,24,0,13,12,27,9,28,1608.txt
0,0,0,0,9,0,4,5,5,7,17,8,0,0,0,10,7,19,6,3,0,0,0,0,20,4,0,0,0,0,6,9,8,9,13,7,4,28,3,7,0,2,19,19,20,16,22,1,16,15,0,0,0,30,0,13,11,22,18,24,1610.txt
0,0,0,0,13,0,4,5,5,7,17,8,0,0,0,10,7,19,6,3,0,0,0,0,9,4,3,3,3,0,6,20,20,10,25,6,10,8,12,26,14,12,27,12,25,3,3,3,3,2,0,0,0,8,0,5,5,4,24,7,1612.txt
0,0,0,0,9,0,4,5,5,7,17,8,0,4,0,10,7,19,6,3,0,0,0,0,20,4,0,0,0,1,6,9,8,9,0,8,4,7,3,0,0,2,19,19,20,7,0,6,7,5,1,1,4,13,4,0,0,0,0,0,1615.txt
0,0,0,0,9,0,4,5,5,25,0,0,4,16,13,10,29,0,0,3,15,2,10,24,0,0,3,3,3,29,6,2,2,2,25,0,0,0,0,2,26,10,27,0,25,7,3,6,7,5,0,0,0,8,0,2,2,4,2,2,1616.txt
0,0,0,0,0,0,4,5,5,7,17,8,8,13,2,10,7,29,6,3,28,17,10,6,0,4,0,0,0,22,6,2,29,2,22,0,0,0,0,0,13,17,27,19,25,13,10,10,20,26,30,17,3,30,21,23,20,13,26,22,1618.txt
0,0,0,0,9,0,4,5,5,7,17,8,0,4,0,10,7,19,6,3,0,0,0,0,20,4,3,3,3,7,6,20,20,19,13,7,4,28,3,7,17,12,26,19,26,16,22,1,10,15,8,9,13,8,16,23,21,30,6,16,1622.txt
0,0,0,0,9,0,4,5,5,7,17,8,0,0,0,10,7,19,6,3,0,0,0,0,20,4,3,2,2,0,6,9,8,9,25,7,4,28,3,15,3,2,3,19,3,7,3,6,7,5,0,0,0,13,0,2,2,4,2,5,1623.txt
0,0,0,0,9,0,4,5,5,7,17,8,0,0,0,10,7,19,6,3,0,0,0,0,20,4,0,0,0,0,6,9,8,9,0,8,4,7,3,0,0,2,19,19,20,7,0,6,7,5,0,0,0,13,0,0,0,0,0,0,1626.txt
0,0,0,0,9,0,4,5,5,7,17,8,0,0,0,10,7,19,6,3,0,0,0,0,20,4,0,0,0,0,6,9,8,9,0,7,4,28,3,0,0,2,19,19,20,7,0,6,7,5,0,0,0,25,0,0,0,0,0,0,1629.txt
0,0,0,0,9,0,4,5,5,7,17,8,0,0,0,10,7,19,6,3,0,0,0,0,20,4,14,2,2,0,6,20,20,10,25,3,2,3,3,5,6,10,4,19,4,3,3,3,3,2,0,0,0,30,0,5,5,4,24,2,1631.txt
0,0,0,0,9,0,4,5,5,7,17,8,0,0,0,10,7,19,6,3,0,0,0,0,20,4,3,3,3,0,6,20,20,19,25,7,4,28,3,7,14,12,26,19,26,7,3,6,7,5,0,0,0,8,0,2,2,6,2,9,1632.txt
0,0,0,0,13,0,4,5,5,7,17,8,25,12,13,10,7,19,6,3,6,5,5,13,0,4,3,3,3,22,2,2,30,2,25,0,0,0,0,2,3,12,3,19,3,23,3,14,29,2,20,3,26,3,3,2,2,4,2,2,1637.txt
0,0,0,0,9,0,4,5,5,7,17,8,8,16,7,10,7,19,6,3,21,8,27,8,20,4,3,3,3,22,6,2,2,2,15,7,4,28,3,7,3,12,3,19,3,16,22,1,22,15,28,17,26,8,27,13,12,28,16,25,1639.txt
29,0,13,10,4,9,20,17,30,16,26,25,23,22,19,26,3,20,26,11,29,13,17,23,10,10,11,16,19,24,22,18,7,16,22,13,25,13,23,22,0,2,19,25,20,13,29,30,16,1,1,1,10,20,16,23,25,13,18,22,1641.txt
0,0,11,3,3,9,7,29,11,9,14,12,10,4,12,27,3,20,29,1,10,23,19,14,20,4,8,7,19,1,30,9,8,9,2,7,4,28,3,0,0,2,19,19,20,21,15,19,23,15,1,1,10,21,16,16,3,3,18,16,1643.txt
0,0,0,0,9,0,4,5,5,7,17,8,0,0,0,10,7,19,6,3,0,0,0,0,20,4,0,0,0,0,6,20,20,19,25,7,4,28,3,7,3,2,3,19,3,7,0,6,7,5,0,0,0,13,0,2,2,4,2,2,1645.txt
0,0,0,0,9,0,4,5,5,7,17,8,0,0,0,10,7,19,6,3,0,0,0,0,20,4,0,0,0,0,6,9,8,9,0,7,4,28,3,0,0,2,19,19,20,7,0,6,7,5,0,0,0,3,0,0,0,0,0,0,1647.txt
0,0,0,0,9,0,4,5,5,7,17,8,0,0,0,10,7,19,6,3,0,0,0,0,20,4,3,3,3,0,6,9,8,9,25,7,4,28,3,7,3,2,3,19,3,7,3,6,7,5,0,0,0,3,0,2,2,6,2,8,1650.txt
0,0,0,0,9,0,4,5,5,27,0,0,8,13,7,10,0,29,0,3,28,2,10,6,21,0,3,3,3,22,6,2,2,2,25,7,2,28,4,15,12,10,9,29,22,7,3,6,7,5,30,17,3,3,27,5,5,5,24,6,1652.txt
0,0,0,0,9,0,4,5,5,7,17,8,0,0,0,10,7,29,6,3,0,0,0,0,20,4,0,0,0,0,6,9,8,9,0,8,2,7,3,0,0,10,19,19,20,7,0,6,7,0,0,0,0,25,0,0,0,0,0,0,1654.txt
0,0,0,0,9,0,4,5,5,7,17,8,0,0,0,10,7,19,6,3,0,0,0,0,20,4,14,24,17,0,6,20,20,19,25,7,2,28,3,15,3,10,3,19,3,3,3,3,3,2,0,0,0,30,0,5,5,4,24,2,1655.txt
0,0,0,0,9,0,4,5,5,7,17,8,0,0,0,10,7,19,6,3,0,0,0,0,20,4,0,0,0,0,6,9,8,9,2,7,4,28,3,0,0,2,19,19,20,21,15,19,23,22,0,0,0,25,0,10,8,20,6,12,1657.txt
0,0,0,0,9,0,4,5,5,7,17,8,0,0,0,10,7,19,6,3,0,0,0,0,20,4,0,0,0,0,6,9,8,9,0,7,4,28,3,0,0,2,19,19,20,7,0,6,7,5,0,0,0,8,0,0,0,0,0,0,1660.txt
0,0,0,0,13,0,4,5,5,7,17,8,8,13,7,10,7,19,6,3,6,5,5,6,20,4,3,3,3,22,2,2,2,2,17,8,9,7,3,15,3,12,3,19,3,18,30,30,13,17,28,17,26,8,27,15,26,30,9,16,1662.txt
0,0,0,0,9,0,4,5,5,7,17,8,0,0,0,10,7,19,6,3,0,0,0,0,20,4,14,24,17,0,6,9,8,9,25,7,4,28,3,7,0,2,19,19,20,7,3,6,7,5,0,0,0,30,0,5,5,4,24,7,1663.txt
0,0,0,0,9,0,14,9,16,25,0,0,8,13,13,0,0,29,0,3,15,15,10,6,21,0,3,3,3,22,6,2,2,2,25,7,6,28,5,7,26,10,27,29,25,23,3,17,29,2,15,10,18,30,2,5,5,7,24,5,1666.txt
16,3,20,20,13,2,21,20,17,21,30,30,0,0,0,19,22,22,24,19,25,28,25,28,3,7,3,9,5,17,18,24,25,3,20,25,16,18,24,19,17,27,26,11,24,11,22,23,20,17,18,10,18,12,2,7,7,10,18,11,1667.txt
0,0,0,0,9,0,4,5,5,7,17,8,0,0,0,10,7,19,6,3,0,0,0,0,20,4,0,0,0,0,6,9,8,9,22,7,4,28,3,7,0,2,19,19,20,16,24,27,18,9,0,0,0,8,0,7,7,10,18,11,1669.txt
0,0,0,0,9,0,4,5,5,7,17,8,0,0,0,10,7,29,6,3,0,0,0,0,20,4,0,0,0,0,6,9,8,9,0,8,2,7,3,0,0,10,19,19,20,7,0,6,7,5,0,0,0,13,0,0,0,0,0,0,1671.txt
0,0,0,0,9,0,4,5,5,7,1,1,0,4,0,10,3,20,26,3,29,13,17,23,20,4,0,0,0,1,6,9,8,9,2,7,4,28,3,0,0,2,19,19,20,21,15,20,23,4,1,1,4,25,4,10,11,20,9,24,1673.txt
0,0,0,0,9,0,4,5,5,7,17,8,0,0,0,10,7,19,6,3,0,0,0,0,20,4,3,3,3,0,6,20,20,19,25,7,8,28,3,7,0,10,19,19,20,7,3,6,7,5,0,0,0,13,0,2,2,7,2,6,1676.txt
0,0,0,0,9,0,4,5,5,7,17,8,0,0,0,10,7,19,6,3,0,0,0,0,20,4,3,24,17,0,6,20,20,20,21,7,4,28,3,6,0,27,19,9,20,16,22,28,17,15,26,10,18,24,2,7,7,10,6,11,1677.txt
0,0,0,0,9,0,4,5,5,7,17,8,0,0,0,10,7,19,6,3,0,0,0,0,20,4,3,3,3,0,6,19,19,19,20,7,4,28,3,7,3,2,3,19,3,16,22,27,16,15,0,0,0,5,0,13,8,22,13,12,1680.txt
21,0,13,10,22,30,25,17,24,30,22,25,23,6,19,26,6,6,10,29,10,7,21,14,29,15,7,6,9,30,29,25,26,17,8,16,30,24,13,1,3,24,3,24,3,11,8,8,9,17,13,25,22,3,22,12,18,22,12,13,1682.txt
0,0,13,29,4,0,7,1,24,7,1,1,6,4,4,11,25,10,4,1,10,23,1,21,1,4,11,5,8,1,21,30,9,28,13,9,1,9,23,16,0,15,19,19,20,13,10,10,16,27,1,28,10,29,17,13,11,28,9,24,1684.txt
0,0,0,0,9,0,4,5,5,7,17,8,0,0,0,10,7,19,6,3,0,0,0,0,20,4,0,0,0,0,30,9,8,9,0,7,4,28,3,0,0,2,19,19,20,7,0,6,7,5,0,0,0,25,0,0,0,0,0,0,1686.txt
0,0,0,0,9,0,4,5,5,7,17,8,0,0,0,10,7,19,6,3,0,0,0,0,20,4,0,0,0,0,6,9,8,9,0,7,4,28,3,0,0,2,19,19,20,7,0,6,7,5,0,0,0,25,0,0,0,0,0,0,1692.txt
0,0,0,0,9,0,4,5,5,7,17,8,0,4,0,10,7,19,6,3,0,0,0,0,1,4,3,3,3,1,6,9,8,9,22,1,25,1,23,24,0,2,19,19,20,16,29,1,16,15,1,28,5,8,5,29,20,13,18,22,1694.txt
0,0,0,0,9,0,4,5,5,7,17,8,0,0,0,10,7,19,6,3,0,0,0,0,20,4,0,0,0,0,30,9,8,9,0,7,2,28,3,0,0,10,19,19,20,7,0,6,7,5,15,10,18,13,7,0,0,0,0,0,1696.txt
0,0,0,0,9,0,4,5,5,7,17,8,0,0,0,10,7,19,6,3,0,0,0,0,20,4,3,3,3,0,6,9,8,9,15,7,4,28,3,7,0,2,19,19,20,16,27,27,22,15,0,0,0,8,0,23,20,13,6,3,1698.txt
0,0,0,0,9,0,4,5,5,7,17,8,0,0,0,10,7,19,6,3,0,0,0,0,7,4,0,0,0,0,6,9,8,9,15,9,25,9,8,8,0,2,19,19,20,16,29,27,11,15,0,0,0,25,0,7,7,10,18,11,1699.txt
0,0,0,0,9,0,4,5,5,7,17,8,0,4,0,10,7,19,6,3,0,0,0,0,20,4,3,3,3,1,30,20,20,10,25,7,4,28,3,7,0,27,19,19,20,7,3,6,7,5,1,28,6,30,13,5,5,4,24,2,1701.txt
0,0,0,0,9,0,4,5,5,7,17,8,0,0,0,10,7,19,6,3,0,0,0,0,7,4,0,0,0,0,3,25,26,3,15,28,28,24,30,8,0,2,19,19,20,16,10,10,11,9,0,0,0,8,0,8,12,28,3,25,1705.txt
0,0,1,3,3,9,7,17,25,4,16,21,10,4,12,25,3,20,26,12,29,13,17,23,12,4,11,7,7,1,21,6,6,28,2,1,1,1,10,16,0,2,19,19,20,21,15,20,23,22,1,1,4,25,4,16,3,3,6,30,1707.txt
0,0,0,0,9,0,4,5,5,7,17,8,0,0,0,10,7,19,6,3,0,0,0,0,20,4,0,0,0,0,6,9,8,9,0,7,4,28,3,0,0,2,19,19,20,7,0,6,7,5,0,0,0,25,0,0,0,0,0,0,1709.txt
0,0,0,0,9,0,4,5,5,7,17,8,0,0,0,10,7,19,6,3,0,0,0,0,20,4,0,0,0,0,6,9,8,9,2,7,4,28,3,0,0,2,19,19,20,17,15,19,8,4,0,0,0,25,0,29,21,25,9,22,1715.txt
0,0,0,0,9,0,4,5,5,7,17,8,8,13,28,10,7,19,6,3,0,0,0,0,18,4,3,3,3,22,6,13,13,14,1,9,20,9,8,22,3,17,3,19,3,20,26,29,18,19,0,0,0,5,0,12,18,22,18,29,1717.txt
0,0,0,0,9,0,4,5,5,7,17,8,0,4,0,10,7,19,6,3,0,0,0,0,20,4,0,0,0,1,6,9,8,9,0,7,4,28,3,0,0,2,19,19,20,7,0,6,7,5,1,1,4,25,4,0,0,0,0,0,1720.txt
0,0,0,0,9,0,4,5,5,7,17,8,0,0,0,10,7,29,6,3,0,0,0,0,20,4,0,0,0,0,6,9,8,9,0,8,2,7,3,0,0,10,19,19,20,7,0,6,7,5,0,0,0,25,0,0,0,0,0,0,1723.txt
0,0,0,0,9,0,4,5,5,7,17,8,0,0,0,10,7,29,6,3,0,0,0,0,20,4,0,0,0,0,6,9,8,9,0,8,2,7,3,0,25,10,19,19,20,7,0,6,7,0,0,0,0,9,0,0,0,0,0,0,1725.txt
0,0,0,0,9,0,4,5,5,7,17,8,0,0,0,10,7,26,6,3,0,0,0,0,12,4,0,0,0,0,21,29,9,28,2,1,1,1,10,16,0,21,19,19,20,2,15,20,2,26,0,0,0,12,0,3,3,25,18,3,1727.txt
0,0,0,0,9,0,4,5,5,7,17,8,8,16,28,10,7,19,6,3,28,2,10,8,20,4,3,3,3,22,6,2,2,2,25,7,4,28,3,7,3,2,3,19,3,7,3,6,7,5,28,17,26,3,27,2,2,7,2,9,1728.txt
0,0,0,0,9,0,4,5,5,7,17,8,0,0,0,10,7,19,6,3,0,0,0,0,20,4,0,0,0,0,6,9,8,9,0,7,6,28,3,0,0,17,19,19,20,7,0,6,7,5,0,0,0,13,0,0,0,0,0,0,1732.txt
0,0,0,0,9,0,4,5,5,7,17,8,0,0,0,10,7,19,6,3,0,0,0,0,20,4,3,3,3,0,6,9,8,9,25,7,4,28,3,7,0,2,19,19,20,7,7,6,7,5,0,0,0,13,0,2,2,7,2,9,1734.txt
0,0,0,0,9,0,4,5,5,7,17,8,0,0,0,10,7,19,6,3,0,0,0,0,20,4,3,3,3,0,6,9,8,9,1,7,4,28,3,7,3,2,3,19,3,16,24,24,18,9,0,0,0,5,0,12,9,11,3,27,1735.txt
0,0,0,0,9,0,4,5,5,7,17,8,0,0,0,10,7,19,6,3,0,0,0,0,20,4,0,0,0,0,6,9,8,9,1,7,4,28,3,0,0,2,19,19,20,16,22,22,16,15,2,10,18,29,2,8,18,29,18,29,1737.txt
0,0,0,0,9,0,4,5,5,7,17,8,0,0,0,10,7,19,6,3,0,0,0,0,20,4,3,3,3,0,6,9,8,9,25,7,4,28,3,7,0,2,19,19,20,7,3,6,7,5,0,0,0,3,0,5,5,7,24,6,1739.txt
0,0,0,0,13,0,4,5,5,7,17,8,8,13,7,10,7,19,6,3,6,5,5,6,20,4,3,3,3,22,6,2,2,2,25,7,2,28,3,7,12,10,13,19,13,7,3,6,7,5,30,17,3,3,27,5,5,6,24,9,1744.txt
16,3,0,0,13,8,4,5,5,8,1,1,8,11,7,10,17,24,10,2,3,23,28,15,20,7,3,3,3,6,6,11,13,13,25,7,8,28,3,7,3,17,3,0,3,24,18,15,30,29,8,9,14,8,17,2,2,6,2,9,1745.txt
0,0,0,0,9,0,4,5,5,7,17,8,0,0,0,10,7,19,6,3,0,0,0,0,20,4,14,2,2,0,6,12,10,10,20,7,4,28,3,7,14,3,27,11,25,16,24,25,1,9,0,0,0,30,0,12,8,22,18,12,1747.txt
0,0,0,0,13,0,4,5,5,7,17,8,25,8,13,10,7,19,6,3,21,8,27,8,0,4,3,3,3,29,30,2,29,2,8,0,0,0,0,2,3,2,3,19,3,16,8,8,11,9,28,3,26,3,21,12,13,28,18,25,1749.txt
0,0,0,0,9,0,4,5,5,25,0,0,8,13,7,10,29,19,0,3,6,5,6,7,20,0,3,3,3,22,6,13,13,14,25,7,4,28,3,7,11,12,13,2,7,24,7,15,30,29,28,17,26,8,21,2,2,4,2,9,1751.txt
16,3,20,2,13,2,21,19,17,2,17,8,8,12,13,17,7,19,6,2,15,15,10,13,20,28,3,3,3,22,2,2,2,2,25,7,4,28,3,7,26,12,27,2,25,3,3,3,3,2,28,17,25,8,26,2,2,4,2,2,1755.txt
0,0,0,0,9,0,4,5,5,7,17,8,8,13,7,10,7,29,6,3,6,5,5,6,20,4,0,0,0,22,6,2,2,2,0,8,8,7,3,0,15,10,15,19,14,7,0,6,7,5,0,0,0,25,0,0,0,0,0,0,1759.txt
0,0,0,0,9,0,4,5,5,7,17,8,0,0,0,10,7,19,6,3,0,0,0,0,20,4,3,3,3,0,6,9,8,9,25,7,4,28,3,7,0,2,19,19,20,7,3,6,7,5,0,0,0,3,0,5,5,7,24,6,1762.txt
29,0,13,29,22,14,26,14,24,30,11,18,6,6,4,11,6,6,4,30,10,7,1,19,18,13,23,16,19,23,25,14,17,17,8,13,14,13,22,1,19,22,21,14,18,10,8,8,14,11,8,9,10,3,16,23,28,13,11,3,1764.txt
16,3,20,2,13,2,2,19,2,2,29,2,25,8,13,2,22,21,24,18,21,2,27,13,9,20,3,2,2,2,2,2,29,2,25,6,10,8,12,26,3,10,3,12,3,3,3,3,3,2,28,3,26,29,21,5,5,4,24,2,1765.txt
29,23,11,4,1,11,26,29,18,13,14,23,13,28,15,27,6,6,4,12,4,7,21,14,23,12,26,16,11,23,10,18,7,5,8,13,20,13,17,14,9,6,7,5,11,16,8,8,22,16,7,7,10,3,15,23,24,13,11,30,1769.txt
0,0,0,0,9,0,4,5,5,7,17,8,0,0,0,10,7,19,6,3,0,0,0,0,20,4,0,0,0,0,6,9,8,9,25,7,4,28,3,7,3,2,3,19,3,7,0,6,7,5,0,0,0,8,0,5,5,6,24,9,1771.txt
0,0,0,0,9,0,4,5,5,7,17,8,0,0,0,10,7,29,6,3,0,0,0,0,20,4,3,23,16,0,6,21,21,19,25,7,2,28,3,7,6,10,4,19,4,7,3,6,7,5,0,0,0,30,0,2,2,6,2,9,1774.txt
0,0,0,0,9,0,4,5,5,7,17,8,8,13,7,10,7,19,6,3,6,5,5,6,20,4,3,30,4,22,6,2,2,2,25,7,2,28,3,7,17,21,26,19,26,7,3,6,7,5,30,27,3,28,27,5,5,7,24,6,1775.txt
0,0,0,0,9,0,4,5,5,7,17,8,0,4,0,10,7,19,6,3,0,0,0,0,20,4,0,0,0,7,6,9,8,9,0,7,4,28,3,0,0,2,19,19,20,7,0,6,7,5,1,1,10,8,16,0,0,0,0,0,1778.txt
0,0,0,0,9,0,4,5,5,7,17,8,25,8,13,10,7,19,6,3,21,9,27,12,20,4,3,3,3,29,15,2,29,2,20,7,4,28,3,7,3,2,3,19,3,16,1,29,18,9,0,0,0,8,0,12,13,29,3,25,1780.txt
0,0,0,0,9,0,4,5,5,7,17,8,0,0,0,10,7,19,6,3,0,0,0,0,20,4,3,3,3,0,6,9,8,9,25,7,4,28,3,7,0,2,19,19,20,7,3,6,7,5,0,0,0,13,0,5,5,5,24,9,1783.txt
0,0,0,0,9,0,4,5,5,7,17,8,0,4,0,10,7,19,6,3,0,0,0,0,20,4,14,24,17,1,6,20,20,10,8,7,4,28,3,7,3,2,3,19,3,16,8,8,20,15,1,28,10,3,16,13,18,11,18,29,1784.txt
0,0,0,0,9,0,4,5,5,7,17,8,0,0,0,10,7,19,6,3,0,0,0,0,20,4,0,0,0,0,6,9,8,9,0,7,4,28,3,0,0,2,19,19,20,7,0,6,7,5,2,10,18,5,2,0,0,0,0,0,1787.txt
0,0,0,0,9,0,4,5,5,7,17,8,10,0,18,10,7,19,6,12,0,0,0,0,7,23,8,5,8,0,3,27,16,3,1,17,28,18,30,8,0,2,19,18,20,16,22,30,16,15,0,0,0,8,0,8,12,28,18,27,1789.txt
0,0,0,0,9,0,4,5,5,7,17,8,0,0,0,10,7,19,6,3,0,0,0,0,20,4,0,0,0,0,6,9,8,9,0,7,4,28,3,4,0,2,19,19,20,7,0,6,7,5,0,0,0,25,0,0,0,0,0,0,1791.txt
0,0,0,0,13,0,4,5,5,7,17,8,8,13,2,10,7,19,6,3,28,15,10,6,20,4,2,24,17,22,6,2,2,2,25,8,4,7,3,15,3,2,3,19,3,7,3,6,7,5,28,17,26,3,3,5,5,7,24,2,1794.txt
0,0,0,0,9,0,4,5,5,7,17,8,0,0,0,10,7,19,6,3,0,0,0,0,20,4,3,24,17,0,6,20,20,10,25,7,8,28,3,7,3,17,3,19,3,7,3,6,7,5,0,0,0,30,0,5,5,4,24,9,1798.txt
16,3,0,0,13,0,4,5,5,25,6,20,13,11,15,10,17,16,11,6,3,19,28,15,15,8,18,25,22,14,3,25,26,22,15,17,30,21,26,8,3,17,3,5,3,13,11,11,22,26,11,12,24,10,10,22,20,13,18,23,1800.txt
0,0,0,0,9,0,4,5,5,0,0,0,8,8,2,10,0,29,0,3,21,2,27,13,21,16,0,0,0,29,6,2,2,2,0,8,8,7,2,0,15,21,16,0,15,7,0,6,7,5,20,27,25,29,3,0,0,0,0,0,1801.txt
0,0,0,0,9,0,4,5,5,7,17,8,0,0,0,10,7,19,6,3,0,0,0,0,20,4,0,0,0,0,6,9,8,9,2,7,4,28,3,0,0,2,19,19,20,21,15,20,23,15,0,0,0,12,0,7,7,10,9,11,1803.txt
0,0,0,0,13,0,4,5,5,22,0,0,2,16,13,10,7,29,6,3,15,15,10,9,0,0,3,3,3,29,2,2,2,2,25,0,0,0,0,2,3,10,3,19,3,7,3,6,7,5,30,3,3,3,3,5,5,4,24,2,1805.txt
0,0,0,0,9,0,4,5,5,7,1,1,8,4,7,10,3,20,4,3,7,21,17,23,20,4,0,0,0,11,6,2,2,2,0,8,8,7,6,0,15,10,26,19,26,7,0,6,7,5,8,9,5,30,5,0,0,0,0,0,1808.txt
0,0,0,0,9,0,4,5,5,7,4,4,0,0,0,10,5,5,3,23,0,0,0,0,20,5,0,0,0,15,30,9,8,9,1,7,4,28,3,0,0,2,19,19,20,8,24,24,1,13,2,10,18,29,2,12,13,11,3,13,1810.txt
0,0,0,0,9,0,4,5,5,7,17,8,0,0,0,10,7,19,6,3,0,0,0,0,20,4,3,3,3,0,6,9,8,9,25,7,4,28,3,7,12,2,13,19,22,26,3,17,29,2,0,0,0,8,0,5,5,4,24,2,1812.txt
0,0,0,0,9,9,4,5,5,8,9,7,6,4,4,10,3,20,26,11,29,13,3,23,21,0,11,7,7,8,6,2,2,2,12,7,2,28,5,0,15,21,23,27,23,2,15,7,24,4,22,22,10,20,14,23,3,13,9,16,1814.txt
0,0,0,0,9,0,4,5,5,7,17,8,0,0,0,10,7,19,6,3,0,0,0,0,20,4,0,0,0,0,6,0,0,0,0,7,8,28,6,0,0,10,19,19,20,7,0,6,7,5,0,0,0,25,0,0,0,0,0,0,1816.txt
29,23,11,29,1,11,7,14,1,14,1,1,6,4,4,11,17,16,10,29,4,21,21,16,15,8,18,25,22,23,10,6,6,5,13,14,20,27,19,14,5,5,7,5,9,10,28,27,9,15,8,9,13,17,16,23,24,30,11,22,1818.txt
0,0,0,0,9,0,4,5,5,7,17,8,0,0,0,10,7,19,6,3,0,0,0,0,20,4,2,24,17,0,6,20,20,19,8,7,8,28,3,7,3,17,3,19,3,13,8,8,16,26,0,0,0,3,0,13,11,22,9,24,1820.txt
0,0,0,0,9,0,4,5,5,7,17,8,0,0,0,10,7,19,6,3,0,0,0,0,20,4,3,30,4,0,6,20,20,19,25,7,4,28,3,7,26,12,26,19,26,7,3,6,7,5,0,0,0,8,0,5,5,6,24,9,1824.txt
0,0,0,0,9,0,4,5,5,7,17,8,0,0,0,10,7,19,6,3,0,0,0,0,20,4,0,0,0,0,6,9,8,9,0,7,4,28,3,0,0,2,19,19,20,7,0,6,7,5,0,0,0,13,0,0,0,0,0,0,1825.txt
0,0,0,0,9,0,4,5,5,7,17,8,8,16,13,10,7,19,6,3,15,8,10,8,7,4,3,3,3,29,6,2,29,2,15,9,1,9,1,8,3,2,3,19,3,16,24,27,11,15,20,17,26,8,3,13,12,29,18,25,1827.txt
18,3,11,4,1,2,15,29,1,21,17,8,13,17,15,27,7,19,6,9,6,5,5,6,15,10,18,25,22,14,17,24,25,21,15,25,16,19,28,8,17,17,26,5,26,13,28,30,22,26,11,12,24,8,10,22,24,13,13,23,1830.txt
0,0,0,0,9,8,4,5,5,8,27,10,23,4,29,10,14,24,30,30,10,21,12,15,20,4,23,5,8,1,6,2,2,2,22,7,2,28,3,0,3,13,3,19,3,13,29,30,16,27,22,5,16,13,17,8,11,28,9,24,1831.txt
0,0,0,0,9,0,4,5,5,7,17,8,0,0,0,10,7,19,6,3,0,0,0,0,20,4,0,0,0,0,6,9,8,9,0,8,4,7,3,0,0,2,19,19,20,7,0,6,7,5,0,0,0,25,0,0,0,9,0,0,1833.txt
0,3,16,2,13,2,21,19,17,2,17,8,8,2,11,2,7,19,6,3,2,2,2,8,20,4,3,3,3,29,2,2,29,2,25,7,4,28,3,7,14,12,27,2,25,3,3,3,3,2,30,17,3,8,3,2,2,4,2,2,1836.txt
0,0,0,0,9,0,4,5,5,7,17,8,0,0,0,10,7,29,6,3,0,0,0,0,20,4,0,0,0,0,6,20,20,19,25,8,8,7,3,25,3,10,3,19,3,7,0,6,7,5,0,0,0,30,0,2,2,4,2,2,1838.txt
29,0,13,29,22,29,26,14,24,30,19,17,6,24,20,11,6,6,16,8,10,7,20,14,17,13,17,13,19,11,25,18,7,30,8,27,23,11,23,1,19,22,20,14,18,20,8,8,13,19,6,6,9,3,11,6,6,12,4,10,1840.txt
0,0,0,0,9,0,4,5,5,7,1,1,6,4,20,10,28,24,26,16,29,13,1,21,10,4,24,5,8,7,6,2,30,2,19,27,23,11,23,21,3,2,3,19,3,18,22,30,28,24,19,5,13,25,16,8,11,26,5,24,1842.txt
0,0,0,0,9,0,4,5,5,7,17,8,0,0,0,10,7,29,6,3,0,0,0,0,20,4,0,0,0,0,6,9,8,9,0,8,2,7,3,0,0,10,19,19,20,7,0,6,7,5,0,0,0,25,0,0,0,0,0,0,1844.txt
0,0,0,0,9,0,4,5,5,25,0,0,0,0,0,10,30,29,0,3,0,0,0,0,21,0,0,0,0,0,6,9,8,9,0,7,2,28,5,0,0,17,19,29,20,7,0,6,7,5,16,16,27,26,7,0,0,0,0,0,1847.txt
0,0,0,0,9,0,4,5,5,7,17,8,0,0,0,10,7,19,6,3,0,0,0,0,20,4,0,0,0,0,6,9,8,9,0,7,4,28,3,0,0,2,19,19,20,7,0,6,7,5,0,0,0,8,0,0,0,0,0,0,1850.txt
0,0,0,0,9,0,4,5,5,7,17,8,0,0,0,10,7,19,6,3,0,0,0,0,20,4,0,0,0,0,6,9,8,26,0,3,4,3,3,0,0,2,19,19,20,7,0,6,7,5,0,0,0,9,0,0,0,0,0,0,1851.txt
0,0,1,4,1,0,7,29,18,7,14,25,23,4,19,8,14,24,26,8,29,1,19,21,7,4,8,5,8,7,17,23,23,21,17,16,18,24,15,8,0,2,19,19,20,9,30,30,9,6,6,6,9,25,11,7,7,10,15,11,1854.txt
0,3,16,2,9,2,21,2,17,19,17,8,0,0,0,23,7,19,6,2,0,0,29,27,20,28,22,30,4,0,6,20,20,10,25,7,4,28,3,7,0,25,19,2,20,3,3,3,3,2,0,0,0,8,0,2,2,4,2,2,1855.txt
0,0,0,0,9,0,4,5,5,7,17,8,0,0,0,10,7,19,6,3,0,0,0,0,20,4,0,0,0,0,6,9,8,9,0,7,4,28,3,0,0,2,19,19,20,7,0,6,7,5,0,0,0,25,0,0,0,0,0,0,1858.txt
0,0,0,0,9,0,4,5,5,7,17,8,0,0,0,10,7,19,6,3,0,0,0,0,20,4,0,0,0,0,6,9,8,9,0,7,4,28,3,0,12,2,13,19,22,7,0,6,7,5,0,0,0,8,0,0,0,0,0,0,1860.txt
0,0,17,2,9,2,21,2,17,2,17,8,6,2,20,2,7,25,6,1,2,9,2,2,30,9,11,5,8,2,21,30,9,28,20,9,1,9,8,16,17,15,24,24,26,13,24,30,1,18,30,3,3,29,21,12,11,22,3,24,1861.txt
0,0,0,0,9,0,4,5,5,7,17,8,11,8,14,10,7,26,6,1,21,17,27,12,30,9,11,5,8,29,21,16,16,28,8,16,29,15,13,27,3,9,3,7,3,1,8,8,16,3,2,10,18,3,2,8,11,29,18,24,1863.txt
0,0,0,0,9,0,4,5,5,7,17,8,0,0,0,10,7,19,6,3,0,0,0,0,20,4,0,0,0,0,15,20,20,10,0,7,4,28,3,0,0,12,19,12,20,23,0,17,29,2,0,0,0,30,0,0,0,0,0,0,1865.txt
0,0,0,0,9,0,4,5,5,7,17,8,0,0,0,10,7,19,6,3,0,0,0,0,20,4,0,0,0,0,6,9,8,9,0,7,2,28,3,0,0,10,19,19,20,7,0,6,7,5,0,0,0,13,0,0,0,0,0,0,1867.txt
0,0,1,29,3,9,7,1,11,4,9,7,6,4,4,11,3,20,26,30,29,13,17,23,12,4,11,19,19,6,27,30,9,30,2,14,14,14,17,22,15,21,15,19,14,4,15,7,4,4,1,1,14,25,17,20,29,13,9,22,1870.txt
0,0,0,0,9,0,4,5,5,7,17,8,0,0,0,10,7,19,6,3,0,0,0,0,20,4,0,0,0,0,6,9,8,9,0,7,4,28,3,0,0,2,19,19,20,7,0,6,7,5,0,0,0,9,0,0,0,0,0,0,1872.txt
29,4,11,3,1,0,7,29,19,18,17,8,10,19,18,7,7,19,6,12,16,11,13,17,7,12,19,6,9,0,8,16,16,4,20,26,16,18,30,14,4,16,17,18,16,16,24,25,1,9,26,16,27,5,7,9,12,19,18,29,1874.txt
0,0,0,0,9,0,4,5,5,7,17,8,0,0,0,10,7,29,6,3,0,0,0,0,20,4,0,0,0,0,6,9,8,9,2,8,2,7,3,0,0,15,19,19,20,21,15,19,23,4,26,10,18,25,2,10,11,20,7,24,1876.txt
16,3,16,20,13,2,21,20,17,21,30,30,8,13,11,20,12,22,25,17,6,5,5,6,20,7,25,3,3,21,2,2,2,2,23,7,4,28,3,7,27,12,26,30,26,24,3,15,30,29,30,17,3,24,27,25,5,6,29,9,1879.txt
0,0,0,0,9,0,4,5,5,7,17,8,0,0,0,10,7,19,6,3,0,0,0,0,20,4,3,3,3,0,6,20,20,10,25,7,4,28,3,7,14,2,27,19,25,3,18,3,3,2,0,0,0,8,0,2,2,7,2,2,1880.txt
