0,1,2,3,4,5,6,7,8,9,10,11,12,13,14,15,16,17,18,19,20,21,22,23,24,25,26,27,28,29,30,31,32,33,34,35,36,37,38,39,40,41,42,43,44,45,46,47,48,49,50,51,52,53,54,55,56,57,58,59,filename
0,0,0,0,0,0,0,0,0,0,0,0,0,0,0,29,0,30,5,10,0,0,8,1,0,25,6,6,30,8,28,23,26,0,10,0,29,3,30,3,1,1,1,1,1,0,0,0,4,4,8,7,8,9,5,29,7,7,26,13,2.txt
22,8,11,1,16,18,16,3,29,16,16,5,22,18,7,5,12,5,20,30,11,27,12,1,7,9,12,1,13,10,9,9,9,8,1,20,21,14,16,17,26,28,26,1,1,29,10,25,6,20,14,0,22,12,16,1,1,1,5,6,5.txt
0,0,0,0,0,0,0,0,0,0,0,0,0,0,0,23,0,30,3,10,0,0,18,1,0,2,2,2,2,2,2,2,23,30,2,0,0,30,0,4,1,29,1,1,1,24,20,17,3,3,27,2,2,2,2,2,2,2,0,0,9.txt
0,0,0,0,0,0,0,0,0,0,0,0,0,0,0,28,0,0,15,0,0,0,9,1,0,9,12,1,13,10,9,9,9,8,1,0,0,2,0,2,26,28,26,1,1,1,1,1,1,1,14,1,1,1,1,1,1,1,5,6,12.txt
0,0,0,0,0,0,0,0,0,0,0,0,0,0,0,28,0,30,15,10,0,0,9,1,0,4,14,13,16,21,2,2,23,30,2,0,0,2,0,2,26,28,26,1,1,0,0,0,4,4,8,3,3,3,5,15,14,16,14,17,14.txt
0,0,0,0,0,21,0,0,0,0,0,0,0,0,0,29,0,0,15,2,0,0,9,0,0,12,14,13,16,21,2,2,23,30,2,0,0,2,0,2,0,0,0,0,0,0,0,0,13,2,2,3,3,3,4,21,7,9,3,17,16.txt
0,0,0,0,0,0,0,0,0,0,0,0,0,0,0,28,0,30,15,0,0,0,9,1,0,9,12,1,13,10,2,2,23,30,2,0,0,2,0,2,26,28,26,1,1,14,29,25,6,20,17,4,4,4,29,1,1,1,5,6,17.txt
0,0,0,0,0,0,0,0,0,0,0,0,0,0,0,28,0,30,15,0,0,0,9,1,0,4,14,13,16,21,9,9,9,8,1,0,0,2,0,2,26,28,26,1,1,20,19,2,13,2,14,3,3,3,19,29,7,16,3,17,21.txt
0,0,0,0,0,0,0,0,0,0,0,0,0,0,0,28,0,0,15,0,0,0,9,1,0,9,12,1,13,10,9,9,9,8,1,0,0,2,0,2,26,28,26,1,1,1,1,1,1,1,14,1,1,1,1,1,1,1,5,6,23.txt
0,0,0,0,0,0,0,0,0,0,0,0,0,0,0,28,0,30,24,10,0,0,18,1,0,9,12,1,13,10,9,9,9,8,1,0,0,2,0,2,26,28,26,1,1,12,10,25,6,20,14,0,8,12,19,1,1,1,5,6,24.txt
0,0,0,0,0,0,0,0,0,0,0,0,0,0,0,28,0,30,15,0,0,0,9,1,0,2,2,2,2,2,2,2,23,30,2,0,0,2,0,2,26,28,26,1,1,0,0,0,4,4,14,2,2,2,2,2,2,2,0,0,26.txt
0,0,0,0,0,0,0,0,0,0,0,0,0,0,0,16,11,24,15,24,0,0,9,1,0,9,12,1,13,10,9,9,9,8,1,0,29,2,30,2,26,28,26,1,1,20,19,25,6,20,14,5,5,5,16,1,1,1,5,6,28.txt
0,0,0,0,0,0,0,0,0,0,0,0,0,0,0,28,0,30,15,0,0,0,9,1,0,2,2,2,2,2,2,2,23,30,2,0,0,2,0,2,26,28,26,1,1,0,0,0,0,0,14,2,2,2,2,2,2,2,0,0,30.txt
17,29,1,23,13,10,12,27,12,2,13,17,10,23,27,25,18,21,12,7,27,17,25,21,7,16,25,20,30,18,28,23,26,0,10,14,14,14,16,27,22,11,23,30,26,4,26,5,24,28,12,15,9,10,8,13,8,7,25,29,32.txt
0,0,0,0,0,0,0,0,0,0,0,0,0,0,0,28,0,30,25,10,0,0,18,21,0,10,14,13,16,21,2,2,23,30,2,0,0,2,0,2,4,23,4,4,25,5,27,5,19,22,20,3,3,3,26,28,8,16,15,19,34.txt
0,0,0,0,0,0,0,0,0,0,0,0,0,0,0,29,0,0,24,2,0,0,19,16,0,23,14,13,16,21,2,2,23,30,2,0,0,0,0,0,4,10,4,4,12,28,10,25,6,20,30,5,5,5,16,3,3,3,29,21,36.txt
0,0,0,0,0,0,0,0,0,0,0,0,0,0,0,28,0,30,15,0,0,0,9,1,0,9,12,1,13,10,9,9,9,8,1,0,0,2,0,2,26,28,26,1,1,1,1,1,1,1,14,1,1,1,1,1,1,1,5,6,40.txt
0,0,0,0,0,0,0,9,0,0,0,0,0,0,0,28,0,30,3,10,0,0,18,3,0,10,14,13,16,21,2,2,23,30,2,0,0,2,0,2,14,4,17,16,14,12,12,2,4,4,27,3,3,3,5,11,8,7,15,20,41.txt
0,0,0,0,0,0,0,0,0,0,0,0,0,0,0,28,0,0,15,0,0,0,9,1,0,9,12,1,13,10,9,9,9,8,1,0,0,2,0,2,26,28,26,1,1,1,1,1,1,1,2,1,1,1,1,1,1,1,5,6,49.txt
0,0,0,0,0,0,0,0,0,0,0,0,0,0,0,28,0,30,15,10,0,0,9,1,0,12,5,5,26,7,22,11,16,25,5,0,0,2,0,2,26,28,26,1,1,0,0,0,4,4,20,16,8,12,5,29,7,16,15,20,53.txt
0,0,0,0,0,0,0,0,0,0,0,0,0,0,0,28,0,30,15,0,0,0,9,1,0,13,14,13,16,21,2,2,23,30,2,0,0,2,0,2,26,28,26,1,1,0,0,0,13,9,4,3,3,3,25,3,3,3,3,17,55.txt
0,0,0,0,0,0,0,0,0,0,0,0,0,0,0,28,0,30,15,0,0,0,9,1,0,9,12,1,13,10,9,9,9,8,1,0,0,2,0,2,26,28,26,1,1,0,0,0,4,4,14,2,2,2,2,1,1,1,5,6,57.txt
0,0,0,0,0,0,0,0,0,0,0,0,0,0,0,28,0,30,15,0,0,0,9,1,0,9,12,1,13,10,9,9,9,8,1,0,0,2,0,2,26,28,26,1,1,1,1,1,1,1,14,1,1,1,1,1,1,1,5,6,60.txt
0,0,0,0,0,0,0,0,0,0,0,0,0,1,28,28,0,30,3,10,0,0,18,12,10,7,14,13,16,3,2,2,23,30,2,4,4,11,15,1,4,4,4,4,29,5,27,5,13,9,1,3,3,3,8,11,6,15,15,20,61.txt
0,0,0,0,0,0,0,0,0,0,0,0,0,0,0,28,0,30,15,0,0,0,9,1,0,9,12,1,13,10,9,9,9,8,1,0,0,2,0,2,26,28,26,1,1,1,1,1,1,1,14,1,1,1,1,1,1,1,5,6,63.txt
17,29,8,30,16,0,3,13,13,0,0,0,0,21,27,28,0,30,24,10,0,0,18,4,7,2,2,2,2,2,2,2,23,30,2,23,20,14,16,1,5,6,6,6,6,5,27,4,3,3,6,2,2,2,2,2,2,2,3,17,65.txt
22,30,11,2,2,1,6,22,2,17,2,19,2,2,1,5,12,5,12,7,4,4,6,1,3,2,2,2,2,2,9,9,9,8,1,1,1,7,1,8,26,28,26,1,1,0,0,0,3,3,14,2,2,2,2,2,2,2,0,0,68.txt
0,0,0,0,0,0,0,0,0,0,0,0,0,0,0,28,0,30,15,10,0,0,9,1,0,2,2,2,2,2,2,2,23,30,2,0,0,5,0,5,1,29,1,1,1,22,20,10,3,3,30,2,2,2,2,2,2,2,0,0,71.txt
0,0,0,0,0,0,27,0,0,0,0,0,0,0,0,28,0,0,15,2,0,0,9,1,0,9,12,1,13,10,9,9,9,8,1,0,0,2,0,2,26,28,26,1,1,30,10,25,6,20,18,4,4,4,17,1,1,1,5,6,72.txt
0,0,0,0,0,0,0,0,0,0,0,0,3,0,0,2,2,2,15,0,0,0,9,1,0,9,12,1,13,10,9,9,9,8,1,0,0,2,0,2,26,28,26,1,1,1,1,1,1,1,2,1,1,1,1,1,1,1,5,6,76.txt
0,0,0,0,0,21,9,8,0,0,0,0,0,0,0,28,0,30,2,10,0,0,2,28,0,25,4,19,30,18,4,4,4,4,4,0,29,2,30,2,4,4,4,4,10,3,3,5,10,11,8,20,14,16,7,13,6,16,26,3,78.txt
0,0,0,0,0,0,0,0,0,0,0,0,0,0,0,24,11,24,15,24,0,0,9,1,0,24,6,6,8,8,12,11,16,18,20,0,0,2,0,2,26,28,26,1,1,20,19,20,13,2,14,0,8,9,8,29,7,16,13,13,81.txt
0,0,0,0,0,0,0,0,0,0,0,0,0,0,0,28,0,30,15,0,0,0,9,1,0,7,14,13,16,21,2,2,23,30,2,0,0,2,0,2,26,28,26,1,1,0,0,0,4,4,14,3,3,3,0,3,3,3,3,17,84.txt
0,0,0,0,0,0,0,0,0,0,0,0,0,0,0,28,0,0,15,0,0,0,9,1,0,9,12,1,13,10,9,9,9,8,1,0,0,2,0,2,26,28,26,1,1,1,1,1,1,1,14,1,1,1,1,1,1,1,5,6,86.txt
0,0,0,0,0,0,0,0,0,0,0,0,0,0,0,28,0,30,15,0,0,0,9,1,0,4,6,6,30,8,2,2,23,30,2,0,0,2,0,2,26,28,26,1,1,12,10,29,30,6,14,3,3,3,8,29,7,7,14,13,89.txt
0,0,0,0,0,0,0,0,0,0,0,0,0,0,0,28,0,0,24,2,0,0,18,1,0,9,12,1,13,10,9,9,9,8,1,0,0,2,0,2,26,28,26,1,1,5,27,4,4,4,8,3,3,3,5,1,1,1,5,6,90.txt
0,0,0,0,0,0,0,0,0,0,0,0,0,0,0,28,0,0,30,20,0,0,9,1,0,9,10,10,11,11,25,18,20,27,29,0,0,2,0,2,25,26,25,24,30,1,1,1,1,1,14,1,1,1,1,18,12,11,5,30,92.txt
17,0,0,9,0,25,2,2,1,0,0,0,5,0,0,2,2,2,15,0,0,0,9,4,0,2,2,2,2,2,3,3,3,3,3,0,0,2,0,2,5,6,6,6,6,0,0,0,4,4,14,2,2,2,2,2,2,2,8,3,95.txt
0,0,0,0,0,0,0,0,0,0,0,0,0,0,0,28,0,30,24,10,0,0,19,1,0,4,14,13,16,21,2,2,23,30,2,0,0,5,0,5,27,1,27,1,1,12,10,25,6,20,12,4,4,4,8,22,7,7,3,17,97.txt
0,0,0,0,0,0,0,0,0,0,0,0,0,0,0,28,0,30,5,10,0,0,8,1,0,24,6,6,30,8,20,11,16,20,11,0,0,2,0,2,26,28,26,1,1,27,25,19,0,0,8,0,8,12,3,29,7,6,26,29,98.txt
0,0,0,0,0,0,0,0,0,0,0,0,0,0,0,28,0,0,15,0,0,0,9,1,0,9,12,1,13,10,9,9,9,8,1,0,0,2,0,2,26,28,26,1,1,1,1,1,1,1,14,1,1,1,1,1,1,1,5,6,100.txt
0,0,0,0,0,0,0,0,0,0,0,0,0,0,0,28,0,30,5,10,0,0,18,1,0,4,5,5,21,7,20,11,16,24,12,0,0,2,0,2,26,28,26,1,1,3,3,4,9,21,8,20,8,12,20,29,7,16,0,0,102.txt
0,0,0,0,0,0,0,0,0,0,0,0,0,0,0,28,0,30,15,0,0,0,9,1,0,4,14,13,16,21,2,2,23,30,2,0,0,2,0,2,26,28,26,1,1,0,0,0,4,4,14,3,3,3,5,3,3,3,14,17,105.txt
0,0,0,0,0,0,0,0,0,0,0,0,0,0,0,28,0,30,15,0,0,0,9,1,0,9,12,1,13,10,9,9,9,8,1,0,0,2,0,2,26,28,26,1,1,1,1,1,1,1,14,1,1,1,1,1,1,1,5,6,108.txt
0,0,0,0,0,0,0,0,0,0,0,0,0,0,0,28,0,0,15,0,0,0,9,1,0,9,12,1,13,10,9,9,9,8,1,0,0,2,0,2,26,28,26,1,1,1,1,1,1,1,2,1,1,1,1,1,1,1,5,6,110.txt
0,0,0,0,0,0,0,0,0,0,0,0,0,0,0,28,0,30,15,0,0,0,9,1,0,9,12,1,13,10,9,9,9,8,1,0,0,2,0,2,26,28,26,1,1,1,1,1,1,1,14,1,1,1,1,1,1,1,5,6,112.txt
0,0,0,0,0,0,0,0,0,0,0,0,0,0,0,28,0,30,24,10,0,0,18,1,0,2,2,2,2,2,2,2,23,30,2,0,0,0,0,0,26,28,26,1,1,20,19,2,3,3,14,2,2,2,2,2,2,2,0,0,114.txt
0,0,0,0,0,0,0,0,0,0,0,0,0,0,0,28,0,30,15,10,0,0,9,12,0,7,14,13,16,21,2,2,23,30,2,0,0,2,0,2,10,4,10,16,29,0,0,0,24,28,20,3,3,3,8,28,24,7,15,20,116.txt
0,0,0,0,0,0,0,0,0,0,0,0,0,0,0,28,0,30,15,0,0,0,9,1,0,9,12,1,13,10,9,9,9,8,1,0,0,2,0,2,26,28,26,1,1,1,1,1,1,1,14,1,1,1,1,1,1,1,5,6,118.txt
22,8,11,1,16,10,2,2,1,2,13,17,22,19,10,5,12,5,12,7,26,11,25,1,28,21,18,18,26,17,14,30,30,11,14,13,13,11,15,27,26,28,26,1,1,0,0,0,2,2,5,0,16,30,20,19,16,13,2,2,121.txt
0,0,0,0,0,0,0,0,0,0,0,0,0,0,0,28,0,30,3,10,0,0,18,1,0,2,2,2,2,2,2,2,23,30,2,0,0,5,0,5,27,29,27,1,1,12,10,15,3,3,29,2,2,2,2,2,2,2,0,0,123.txt
0,0,0,0,0,0,0,0,0,0,0,0,0,0,0,29,0,30,24,10,0,0,19,1,0,4,6,6,8,8,2,2,23,30,2,0,0,0,0,0,1,1,1,1,1,12,10,29,14,14,8,3,3,3,19,29,7,7,13,29,124.txt
0,0,0,0,0,0,0,0,0,0,0,0,0,0,0,28,0,30,15,0,0,0,9,1,0,9,12,1,13,10,9,9,9,8,1,0,0,2,0,2,26,28,26,1,1,1,1,1,1,1,14,1,1,1,1,1,1,1,5,6,126.txt
0,0,0,0,0,0,0,0,0,0,0,0,0,0,0,29,0,0,15,0,0,0,9,1,0,9,12,1,13,10,9,9,9,8,1,0,0,2,0,2,26,28,26,1,1,17,29,23,9,2,14,0,20,21,27,1,1,1,5,6,128.txt
0,0,0,0,0,0,0,0,0,0,0,0,0,0,0,28,0,30,15,0,0,0,9,1,0,9,12,1,13,10,9,9,9,8,1,0,0,2,0,2,26,28,26,1,1,1,1,1,1,1,14,1,1,1,1,1,1,1,5,6,130.txt
0,0,0,0,0,0,0,0,0,0,0,0,0,0,0,28,0,0,15,0,0,0,9,1,0,9,12,1,13,10,9,9,9,8,1,0,0,2,0,2,26,28,26,1,1,1,1,1,1,1,14,1,1,1,1,1,1,1,5,6,132.txt
0,0,0,0,0,0,0,0,0,0,0,0,0,0,0,28,0,30,15,0,0,0,9,1,0,9,12,1,13,10,9,9,9,8,1,0,0,2,0,2,26,28,26,1,1,1,1,1,1,1,14,1,1,1,1,1,1,1,5,6,135.txt
0,0,0,0,0,0,0,0,0,0,0,0,0,0,0,7,8,7,10,4,0,0,16,0,0,9,12,1,13,10,4,4,4,4,4,0,28,2,29,2,0,0,0,0,0,18,17,4,13,9,2,0,12,14,4,1,1,1,5,1,137.txt
0,0,0,0,0,0,0,0,0,0,0,0,0,0,0,28,0,30,15,0,0,0,9,1,0,9,12,1,13,10,9,9,9,8,1,0,0,2,0,2,26,28,26,1,1,1,1,1,1,1,14,1,1,1,1,1,1,1,5,6,141.txt
0,0,0,0,0,0,0,0,0,0,0,0,0,0,0,28,0,30,15,0,0,0,9,1,0,9,12,1,13,10,9,9,9,8,1,0,0,2,0,2,26,28,26,1,1,0,0,0,0,0,14,3,3,3,5,1,1,1,5,6,144.txt
0,0,0,13,0,0,0,0,0,0,0,0,0,0,0,28,0,30,15,26,0,0,9,1,0,9,12,1,13,10,2,2,23,30,2,0,0,2,0,2,26,28,26,1,1,22,10,23,27,8,18,5,5,5,28,1,1,1,5,6,145.txt
0,0,0,0,0,0,0,0,0,0,0,0,0,0,0,28,0,0,15,0,0,0,9,1,0,9,12,1,13,10,9,9,9,8,1,0,29,2,30,2,26,28,26,1,1,1,1,1,1,1,2,1,1,1,1,1,1,1,5,6,147.txt
0,0,0,0,0,0,0,0,0,0,0,0,0,0,0,28,0,30,15,0,0,0,9,1,0,4,14,13,16,21,2,2,23,30,2,0,29,3,30,3,26,28,26,1,1,0,0,0,4,4,14,3,3,3,5,29,7,7,13,17,149.txt
0,0,0,0,0,0,0,0,0,0,0,0,0,0,0,28,0,30,15,0,0,0,9,1,0,9,12,1,13,10,9,9,9,8,1,0,0,2,0,2,26,28,26,1,1,1,1,1,1,1,14,1,1,1,1,1,1,1,5,6,151.txt
0,0,0,0,0,0,0,0,0,0,0,0,0,0,0,28,0,30,15,0,0,0,9,1,0,9,12,1,13,10,9,9,9,8,1,0,0,2,0,2,26,28,26,1,1,1,1,1,1,1,14,1,1,1,1,1,1,1,5,6,154.txt
0,0,0,0,0,0,0,0,0,0,0,0,0,0,0,28,0,30,15,0,0,0,9,1,0,19,14,13,16,21,2,2,23,30,2,0,29,2,30,2,26,28,26,1,1,24,15,2,9,2,8,3,3,3,27,3,3,3,14,17,156.txt
0,0,0,0,0,0,0,0,0,0,0,0,0,0,0,28,0,30,15,10,0,0,9,1,0,2,2,2,2,2,3,3,3,3,3,0,29,2,30,2,26,28,26,1,1,0,0,0,4,4,14,2,2,2,2,2,2,2,3,29,158.txt
0,0,0,0,0,0,0,0,0,0,0,0,0,0,0,28,0,0,24,2,0,0,18,16,0,23,14,13,16,21,2,2,23,30,2,0,0,2,0,2,13,23,23,16,12,14,23,2,27,15,8,3,3,3,27,22,7,16,14,17,160.txt
0,0,0,0,0,0,0,0,0,0,0,0,0,0,0,28,0,30,15,0,0,0,9,1,0,9,12,1,13,10,9,9,9,8,1,0,0,4,0,4,26,28,26,1,1,0,0,0,13,2,14,3,3,3,6,1,1,1,5,6,161.txt
0,0,0,0,0,0,0,0,0,0,0,0,0,0,0,28,0,30,24,10,0,0,3,4,0,2,2,2,2,2,3,3,3,3,3,0,0,3,0,3,4,4,4,4,9,3,3,6,0,0,6,2,2,2,2,2,2,2,8,29,163.txt
0,0,0,0,0,0,0,0,0,0,0,0,0,0,0,28,0,30,15,0,0,0,9,1,0,9,12,1,13,10,9,9,9,8,1,0,0,2,0,2,26,28,26,1,1,1,1,1,1,1,14,1,1,1,1,1,1,1,5,6,165.txt
0,0,0,0,0,0,0,0,0,0,0,0,0,2,1,28,0,30,15,10,0,0,9,1,3,2,2,2,2,2,9,9,9,8,1,1,1,7,1,8,26,28,26,1,1,0,0,0,4,4,14,2,2,2,2,2,2,2,0,0,167.txt
0,0,0,0,0,0,0,0,0,0,0,0,0,0,0,28,0,30,15,0,0,0,9,1,0,9,12,1,13,10,9,9,9,8,1,0,0,2,0,2,26,28,26,1,1,1,1,1,1,1,14,1,1,1,1,1,1,1,5,6,169.txt
0,0,0,0,0,0,0,0,0,0,0,0,0,0,0,28,0,30,15,0,0,0,9,1,0,9,12,1,13,10,9,9,9,8,1,0,0,2,0,2,26,28,26,1,1,1,1,1,1,1,2,1,1,1,1,1,1,1,5,6,171.txt
0,0,0,0,0,0,0,0,0,0,0,0,0,0,0,28,0,30,15,0,0,0,9,1,0,2,2,2,2,2,2,2,23,30,2,0,0,2,0,2,26,28,26,1,1,0,0,0,0,0,14,2,2,2,2,2,2,2,0,0,173.txt
0,0,0,0,0,0,0,0,0,0,0,0,0,0,0,28,0,30,15,0,6,6,9,1,0,9,12,1,13,10,9,9,9,8,1,5,5,2,6,2,26,28,26,1,1,1,1,1,1,1,14,1,1,1,1,1,1,1,5,6,175.txt
0,0,0,0,0,0,0,0,0,0,0,0,0,0,0,28,0,30,15,0,0,0,9,1,0,9,12,1,13,10,9,9,9,8,1,0,0,2,0,2,26,28,26,1,1,0,0,0,13,2,14,3,3,3,22,1,1,1,5,6,177.txt
0,0,0,0,0,0,0,0,0,0,0,0,0,0,0,28,0,30,15,0,0,0,9,1,0,9,12,1,13,10,9,9,9,8,1,0,0,2,0,2,26,28,26,1,1,1,1,1,1,1,14,1,1,1,1,1,1,1,5,6,179.txt
0,0,0,0,0,0,0,0,0,0,0,0,0,0,0,28,0,0,15,0,0,0,9,1,0,9,12,1,13,10,9,9,9,8,1,0,0,2,0,2,26,28,26,1,1,1,1,1,1,1,14,1,1,1,1,1,1,1,5,1,182.txt
0,0,0,0,0,0,0,0,0,0,0,0,0,0,0,28,0,30,15,0,0,0,9,1,0,9,12,1,13,10,9,9,9,8,1,0,0,2,0,2,26,28,26,1,1,1,1,1,1,1,8,1,1,1,1,1,1,1,5,6,184.txt
0,0,0,0,0,0,0,0,0,0,0,0,0,0,0,28,0,30,15,0,0,0,9,1,0,9,12,1,13,10,9,9,9,8,1,0,0,2,0,2,26,28,26,1,1,20,19,2,3,3,14,2,2,2,2,1,1,1,5,6,188.txt
0,0,0,0,0,0,0,0,0,0,0,0,0,0,0,28,0,30,5,10,0,0,16,21,0,4,0,0,30,22,18,30,29,17,20,0,0,5,0,5,18,4,18,21,29,3,3,5,11,12,12,7,13,15,20,13,0,13,26,13,189.txt
0,0,0,0,0,0,0,0,0,0,0,0,0,0,0,2,2,2,15,0,0,0,9,1,0,9,12,1,13,10,9,9,9,8,1,0,0,2,0,2,26,28,26,1,1,0,0,0,13,2,14,0,8,12,7,1,1,1,5,6,191.txt
27,29,24,30,13,28,3,27,11,2,23,9,8,21,7,19,20,26,23,30,19,16,26,14,7,4,22,25,21,26,28,23,26,0,10,15,15,14,21,17,16,20,15,15,22,28,30,22,25,6,16,28,13,15,28,12,13,0,3,11,194.txt
0,0,0,0,0,0,0,0,0,0,0,0,0,0,0,28,0,0,15,0,0,0,9,1,0,9,12,1,13,10,9,9,9,8,1,0,0,2,0,2,26,28,26,1,1,1,1,1,1,1,2,1,1,1,1,1,1,1,5,6,197.txt
0,0,0,0,0,0,0,0,0,0,0,0,0,0,0,28,0,30,15,0,0,0,9,1,0,9,12,1,13,10,9,9,9,8,1,0,0,2,0,2,26,28,26,1,1,1,1,1,1,1,14,1,1,1,1,1,1,1,5,6,199.txt
0,0,0,0,0,21,9,8,0,0,0,0,0,0,0,29,0,30,24,10,0,0,19,21,0,21,17,17,26,16,20,11,16,25,15,0,0,4,0,4,4,4,4,4,13,26,24,5,24,28,8,20,24,24,26,28,14,16,14,29,203.txt
0,0,0,0,0,0,0,0,0,0,0,0,0,0,0,28,0,0,15,0,0,0,9,1,0,9,12,1,13,10,9,9,9,8,1,0,0,2,0,2,26,28,26,1,1,1,1,1,1,1,17,1,1,1,1,1,1,1,5,6,204.txt
0,0,0,0,0,0,9,8,0,0,0,0,0,0,0,3,7,3,2,3,0,0,2,11,0,3,4,21,6,18,18,11,16,17,20,0,0,4,0,4,10,4,18,10,29,27,25,6,24,28,8,11,14,16,25,13,24,16,13,29,209.txt
0,0,0,0,0,0,0,0,0,0,0,0,0,0,0,28,0,30,15,0,0,0,9,1,0,2,2,2,2,2,9,9,9,8,1,0,0,0,0,0,1,29,1,1,1,0,0,0,3,3,0,2,2,2,2,2,2,2,0,0,210.txt
0,0,0,0,0,0,0,0,0,0,0,0,0,0,0,28,0,30,15,0,0,0,9,1,0,9,12,1,13,10,9,9,9,8,1,0,0,2,0,2,26,28,26,1,1,1,1,1,1,1,2,1,1,1,1,1,1,1,5,6,212.txt
0,0,0,0,0,0,0,0,0,0,0,0,0,0,0,28,0,30,15,0,0,0,9,1,0,4,14,13,16,21,2,2,23,30,2,0,29,2,30,2,26,28,26,1,1,0,0,0,13,15,14,3,3,3,8,29,7,7,3,17,214.txt
22,29,24,9,24,8,16,3,29,16,12,5,8,12,7,26,16,14,14,9,16,27,12,24,9,9,12,1,13,10,13,14,15,18,12,15,15,13,12,13,8,8,8,8,8,23,11,25,6,20,16,18,22,12,16,1,1,1,5,6,217.txt
0,0,0,0,0,0,0,0,0,0,0,0,0,0,0,28,0,0,24,2,6,13,18,0,0,16,14,13,16,21,2,2,23,30,2,10,10,2,2,2,0,0,0,0,0,5,27,19,27,8,2,3,3,3,0,9,7,0,3,17,219.txt
0,0,0,0,0,0,0,0,0,0,0,0,0,0,0,28,0,0,24,2,0,0,18,0,0,9,12,1,13,10,2,2,23,30,2,0,0,2,0,2,0,0,0,0,0,5,27,19,13,15,2,3,3,3,20,1,1,1,5,6,220.txt
0,0,0,0,0,0,0,0,0,0,0,0,0,0,0,28,0,0,15,0,0,0,9,1,0,9,12,1,13,10,9,9,9,8,1,0,0,2,0,2,26,28,26,1,1,1,1,1,1,1,14,1,1,1,1,1,1,1,5,6,222.txt
0,0,0,0,0,0,0,0,0,0,0,0,0,0,0,28,0,0,24,2,0,0,18,1,0,9,12,1,13,10,2,2,23,30,2,0,0,2,0,2,26,28,26,1,1,1,1,1,1,1,2,1,1,1,1,1,1,1,5,6,225.txt
0,0,0,0,0,0,0,0,0,0,0,0,0,0,0,28,0,30,15,0,0,0,9,1,0,4,14,13,16,21,9,9,9,8,1,0,0,2,0,2,26,28,26,1,1,20,19,2,13,2,14,3,3,3,20,8,14,16,0,0,227.txt
0,0,0,0,0,0,0,0,0,0,0,0,0,0,0,28,0,30,15,0,0,0,9,1,0,9,12,1,13,10,9,9,9,8,1,0,0,2,0,2,26,28,26,1,1,1,1,1,1,1,14,1,1,1,1,1,1,1,5,6,229.txt
0,0,0,0,0,0,0,0,0,0,0,0,0,0,0,29,0,0,15,0,0,0,9,1,0,9,12,1,13,10,9,9,9,8,1,0,29,0,30,0,26,28,26,1,1,1,1,1,1,1,2,1,1,1,1,1,1,1,5,1,231.txt
22,0,0,2,0,0,6,22,2,0,0,0,0,2,1,28,0,30,15,0,0,0,9,1,3,2,2,2,2,2,2,2,23,30,2,1,1,7,1,8,26,28,26,1,1,0,0,0,4,4,14,2,2,2,2,2,2,2,0,0,236.txt
0,0,0,0,0,0,0,0,0,0,0,0,0,0,0,28,0,30,15,0,0,0,9,1,0,4,6,6,8,8,28,23,26,0,10,0,29,2,30,2,26,28,26,1,1,11,10,20,13,2,8,8,8,12,8,29,7,7,14,13,241.txt
0,0,0,0,0,0,0,0,0,0,0,0,0,0,0,28,0,0,15,0,0,0,9,0,0,9,12,1,13,10,2,2,23,30,2,0,0,2,0,2,0,0,0,0,0,0,0,0,7,2,2,3,3,3,0,1,1,1,5,6,242.txt
0,0,0,0,0,0,0,0,0,0,0,0,0,0,0,28,0,30,15,0,0,0,9,1,0,9,12,1,13,10,9,9,9,8,1,0,0,2,0,2,26,28,26,1,1,20,19,2,13,2,14,20,8,12,20,1,1,1,5,6,245.txt
0,0,0,0,0,0,0,0,0,0,0,0,0,0,0,28,0,30,15,0,0,0,9,1,0,9,12,1,13,10,9,9,9,8,1,0,0,2,0,2,26,28,26,1,1,0,0,0,0,0,14,3,3,3,0,1,1,1,5,6,247.txt
0,0,0,0,0,0,0,0,0,0,0,0,0,0,0,29,0,0,5,2,0,0,16,1,0,25,6,4,8,18,0,0,0,0,0,0,0,2,0,2,26,28,26,1,1,12,15,25,6,20,8,0,8,9,8,29,7,8,26,8,249.txt
0,0,0,0,0,12,0,0,14,28,5,23,3,0,0,2,2,2,15,0,0,0,9,1,4,9,8,7,13,10,9,9,9,8,1,0,29,6,30,6,26,28,26,1,1,1,1,1,1,1,14,1,1,1,1,1,1,1,5,1,250.txt
0,0,0,0,0,0,0,0,0,0,0,0,0,0,0,28,0,30,15,0,0,0,9,1,0,9,12,1,13,10,9,9,9,8,1,0,0,2,0,2,26,28,26,1,1,1,1,1,1,1,14,1,1,1,1,1,1,1,5,6,252.txt
22,30,11,2,2,1,6,22,2,17,2,19,2,2,1,28,0,30,1,1,4,4,6,1,3,9,12,1,13,10,9,9,9,8,1,1,1,7,1,8,26,28,26,1,1,0,0,0,0,0,14,0,8,12,0,1,1,1,5,6,256.txt
0,0,0,0,0,0,0,0,0,0,0,0,0,0,0,28,0,30,15,0,0,0,9,1,0,9,12,1,13,10,9,9,9,8,1,0,0,2,0,2,26,28,26,1,1,0,0,0,4,4,14,3,3,3,5,1,1,1,5,6,258.txt
0,0,0,0,0,0,0,0,0,0,0,0,0,0,0,28,0,30,15,0,0,0,9,1,0,9,12,1,13,10,9,9,9,8,1,0,0,2,0,2,26,28,26,1,1,20,19,23,4,4,14,4,4,4,0,1,1,1,5,6,260.txt
0,0,0,0,0,0,0,0,0,0,0,0,0,0,0,28,0,30,15,0,0,0,9,1,0,13,14,13,16,21,9,9,9,8,1,0,0,4,0,4,1,1,1,1,1,0,0,0,0,0,0,3,3,3,5,3,3,3,2,2,261.txt
0,0,0,0,0,0,0,0,0,0,0,0,0,0,0,28,0,0,15,0,0,0,9,1,0,9,12,1,13,10,2,2,23,30,2,0,0,2,0,2,26,28,26,1,1,1,1,1,1,1,2,1,1,1,1,1,1,1,5,6,264.txt
0,0,0,0,0,0,0,0,0,0,0,0,0,0,0,28,0,0,15,0,0,0,9,1,0,9,12,1,13,10,9,9,9,8,1,0,0,2,0,2,26,28,26,1,1,1,1,1,1,1,2,1,1,1,1,1,1,1,5,6,269.txt
0,0,0,0,0,0,0,0,0,0,0,0,0,0,0,28,0,30,15,0,0,0,9,1,0,9,12,1,13,10,9,9,9,8,1,0,29,2,30,2,26,28,26,1,1,1,1,1,1,1,14,1,1,1,1,1,1,1,5,6,272.txt
0,0,0,0,0,0,0,0,0,0,0,0,0,0,0,28,0,30,15,0,0,0,9,1,0,9,12,1,13,10,9,9,9,8,1,0,0,2,0,2,26,28,26,1,1,1,1,1,1,1,14,1,1,1,1,1,1,1,5,6,274.txt
0,0,0,0,0,21,9,8,0,0,0,0,0,0,0,23,0,30,4,10,0,0,7,3,0,13,4,21,26,6,10,11,16,10,24,0,0,3,0,3,14,4,17,20,11,19,18,3,12,10,8,7,14,16,5,28,24,6,26,13,276.txt
0,0,0,0,0,0,0,0,0,0,0,0,0,0,0,28,0,0,15,0,0,0,9,1,0,9,12,1,13,10,12,11,16,18,20,0,0,2,0,2,26,28,26,1,1,1,1,1,1,1,2,1,1,1,1,1,1,1,5,6,280.txt
0,0,0,0,0,0,0,0,0,0,0,0,0,0,0,29,0,0,30,20,0,0,9,1,0,9,10,10,11,11,26,18,21,27,29,0,0,5,0,5,25,26,25,24,30,1,1,1,1,1,2,1,1,1,1,18,12,11,5,30,282.txt
0,0,0,0,0,0,0,0,0,0,0,0,0,0,0,29,0,30,24,10,0,0,18,28,0,4,25,4,8,18,28,23,26,0,10,0,0,5,0,5,14,4,17,20,10,17,10,20,13,15,12,0,9,9,8,0,8,7,26,13,283.txt
0,0,0,0,0,0,0,0,0,0,0,0,0,0,0,28,0,30,15,0,0,0,9,1,0,9,12,1,13,10,9,9,9,8,1,0,0,2,0,2,26,28,26,1,1,1,1,1,1,1,14,1,1,1,1,1,1,1,5,6,284.txt
0,0,0,0,0,0,0,0,0,0,0,0,0,0,0,28,0,30,15,0,0,0,9,1,0,2,2,2,2,2,9,9,9,8,1,0,0,2,0,2,26,28,26,1,1,0,0,0,4,4,14,2,2,2,2,2,2,2,0,0,286.txt
0,0,0,0,0,0,0,0,0,0,0,0,0,0,0,28,0,30,4,10,0,0,16,28,0,4,0,0,30,16,10,30,29,10,20,0,0,2,0,2,14,4,17,20,10,27,25,19,4,4,4,11,28,30,5,13,0,13,3,29,288.txt
0,0,0,0,0,0,0,0,0,0,0,0,0,0,0,28,0,30,30,10,0,0,9,4,0,2,2,2,2,2,2,2,23,30,2,0,0,2,0,2,5,6,6,6,6,0,0,0,4,4,14,2,2,2,2,2,2,2,0,0,290.txt
0,0,0,0,0,0,0,0,0,0,0,0,0,0,0,29,0,0,24,2,0,0,18,1,0,9,12,1,13,10,9,9,9,8,1,0,0,0,0,0,1,1,1,1,1,0,0,0,13,15,20,10,8,9,22,1,1,1,5,6,293.txt
0,0,0,0,0,0,0,0,0,0,0,0,0,0,0,3,3,3,24,3,0,0,19,3,0,3,4,21,8,18,14,22,16,11,11,0,0,3,0,3,4,4,4,4,11,19,18,3,12,10,8,7,14,16,0,13,24,8,13,3,295.txt
27,29,1,30,16,18,3,19,13,2,18,9,20,24,21,17,17,26,21,30,14,21,25,19,7,23,5,5,22,7,22,11,16,23,15,4,4,14,16,27,16,4,15,15,18,29,10,25,6,20,28,28,14,16,26,28,24,7,15,21,297.txt
0,0,0,0,0,0,0,0,0,0,0,0,0,0,0,28,0,30,15,10,0,0,9,1,0,2,2,2,2,2,2,2,23,30,2,0,0,30,0,4,26,28,26,1,1,0,0,0,3,3,14,2,2,2,2,2,2,2,0,0,300.txt
0,0,0,0,0,0,0,0,0,0,0,0,0,0,0,28,0,30,15,0,0,0,9,1,0,9,12,1,13,10,9,9,9,8,1,0,0,2,0,2,26,28,26,1,1,1,1,1,1,1,14,1,1,1,1,1,1,1,5,6,303.txt
0,0,0,0,0,0,0,0,0,0,0,0,0,0,0,28,0,30,15,10,0,0,9,4,0,2,2,2,2,2,2,2,23,30,2,0,0,2,0,2,5,6,6,6,6,0,0,0,4,4,14,2,2,2,2,2,2,2,0,0,305.txt
0,0,0,0,0,0,0,0,0,0,0,0,0,0,0,28,0,30,15,0,0,0,9,1,0,16,6,6,4,5,9,9,9,8,1,0,0,2,0,2,26,28,26,1,1,0,0,0,4,4,14,8,8,12,0,29,7,7,3,29,307.txt
0,0,0,0,0,0,0,0,0,0,0,0,0,0,0,28,0,30,15,0,0,0,9,1,0,2,2,2,2,2,3,3,3,3,3,0,0,2,0,2,26,28,26,1,1,12,10,10,3,3,6,2,2,2,2,2,2,2,0,0,311.txt
0,0,0,0,0,0,0,0,0,0,0,0,0,0,0,28,0,30,15,0,0,0,9,1,0,9,12,1,13,10,9,9,9,8,1,0,0,2,0,2,26,28,26,1,1,0,0,0,4,4,14,3,3,3,5,1,1,1,5,6,313.txt
0,0,0,0,0,0,0,0,0,0,0,0,0,0,0,2,2,2,15,0,0,0,9,1,0,9,12,1,13,10,2,2,23,30,2,0,0,2,0,2,26,28,26,1,1,1,1,1,1,1,8,1,1,1,1,1,1,1,5,6,318.txt
0,0,0,0,0,0,0,0,0,0,0,0,0,0,0,28,0,0,24,2,0,0,18,1,0,9,12,1,13,10,2,2,23,30,2,0,0,2,0,2,26,28,26,1,1,14,12,2,13,15,2,3,3,3,4,1,1,1,5,6,320.txt
5,29,16,9,8,10,12,6,24,24,13,17,11,23,19,25,26,21,17,16,16,23,25,21,23,4,15,14,14,14,4,4,4,21,4,23,23,16,21,13,14,10,13,13,29,4,26,5,23,26,12,7,23,27,28,22,14,9,18,3,322.txt
5,29,16,9,8,10,12,6,24,24,13,17,11,23,19,25,26,21,17,16,16,23,25,21,23,4,15,14,14,14,4,4,4,21,4,23,23,16,21,13,14,10,13,13,29,4,26,5,23,26,12,7,23,27,28,22,14,9,18,3,323.txt
0,0,0,0,0,0,0,0,0,0,0,0,0,0,0,28,0,30,15,0,0,0,9,1,0,9,12,1,13,10,9,9,9,8,1,0,0,2,0,2,26,28,26,1,1,1,1,1,1,1,14,1,1,1,1,1,1,1,5,6,324.txt
0,0,0,0,0,0,0,0,0,0,0,0,0,0,0,12,24,19,16,5,0,0,16,12,0,5,4,21,21,20,17,11,16,16,20,0,0,5,0,5,14,4,17,20,29,17,7,2,13,15,8,23,14,16,8,13,24,8,25,29,326.txt
0,0,0,0,0,0,0,0,0,0,0,0,0,0,0,28,0,30,4,10,0,0,8,28,0,3,4,6,8,8,28,23,26,0,10,0,0,4,0,4,10,4,10,10,10,0,0,0,4,4,8,20,14,16,5,13,24,7,13,29,328.txt
0,0,0,0,0,0,0,0,0,0,0,0,0,0,0,28,0,0,15,0,0,0,9,1,0,9,12,1,13,10,9,9,9,8,1,0,29,2,30,2,26,28,26,1,1,1,1,1,1,1,14,1,1,1,1,1,1,1,5,1,329.txt
0,0,0,0,0,0,0,0,0,0,0,0,0,0,0,28,0,0,15,0,0,0,9,1,0,9,12,1,13,10,9,9,9,8,1,0,29,2,30,2,26,28,26,1,1,1,1,1,1,1,14,1,1,1,1,1,1,1,5,6,333.txt
0,0,0,0,0,0,0,0,0,0,0,0,0,0,0,28,0,30,15,0,0,0,9,1,0,9,12,1,13,10,9,9,9,8,1,0,0,2,0,2,26,28,26,1,1,1,1,1,1,1,14,1,1,1,1,1,1,1,5,6,335.txt
0,0,0,0,0,0,0,0,0,0,0,0,0,0,0,28,0,0,15,0,0,0,9,1,0,9,12,1,13,10,9,9,9,8,1,0,0,2,0,2,26,28,26,1,1,1,1,1,1,1,14,1,1,1,1,1,1,1,5,6,337.txt
0,0,0,0,0,0,0,0,0,0,0,0,0,0,0,12,11,18,5,24,0,0,8,1,0,16,6,6,8,8,28,23,26,0,10,0,29,3,30,3,26,28,26,1,1,27,25,19,4,4,8,23,8,12,5,29,7,7,26,8,341.txt
0,0,0,0,0,12,0,0,14,4,15,18,4,0,0,3,3,3,5,3,0,0,8,4,4,2,2,2,2,2,3,3,3,3,3,0,0,6,0,6,5,6,6,6,6,0,0,0,3,3,14,2,2,2,2,2,2,2,0,0,342.txt
0,0,0,0,0,0,0,0,0,0,0,0,0,0,0,28,0,30,15,0,0,0,9,1,0,12,5,5,19,7,14,11,16,11,5,0,0,2,0,2,26,28,26,1,1,25,10,29,19,22,1,20,8,12,19,29,7,16,0,0,344.txt
0,0,0,0,0,0,0,0,0,0,0,0,0,0,0,28,0,30,15,0,0,0,9,1,0,3,14,13,16,21,2,2,23,30,2,0,0,2,0,2,26,28,26,1,1,0,0,0,4,4,14,3,3,3,5,8,0,15,14,17,347.txt
0,0,0,0,0,21,9,8,0,0,0,0,0,0,0,28,0,30,24,10,0,0,18,11,0,7,4,21,26,18,4,4,4,4,4,0,29,2,30,2,4,4,4,4,29,18,17,19,24,28,8,11,14,16,25,28,6,10,13,3,349.txt
0,0,0,0,0,0,0,0,0,0,0,0,0,0,0,23,0,30,24,10,0,0,3,28,0,4,4,6,6,8,14,11,16,11,20,0,29,3,30,3,4,4,4,4,10,0,0,0,10,11,8,26,14,16,8,13,24,16,13,13,352.txt
0,0,13,3,3,0,0,0,30,6,26,13,0,0,0,28,0,30,24,10,29,14,19,12,0,4,14,13,16,21,2,2,23,30,2,0,0,3,0,3,4,4,4,4,29,5,27,6,24,28,7,3,3,3,20,13,14,15,27,4,354.txt
0,0,0,0,0,0,0,0,0,0,0,0,0,0,0,29,0,0,15,0,0,0,9,1,0,9,12,1,13,10,9,9,9,8,1,0,0,2,0,2,26,28,26,1,1,0,0,0,13,2,8,3,3,3,8,1,1,1,5,6,358.txt
0,0,0,0,0,0,0,0,0,0,0,0,0,0,0,28,0,0,15,0,0,0,9,1,0,9,12,1,13,10,9,9,9,8,1,0,0,2,0,2,26,28,26,1,1,1,1,1,1,1,14,1,1,1,1,1,1,1,5,6,360.txt
0,0,0,0,0,0,0,0,0,0,0,0,0,0,0,28,0,30,16,10,0,0,16,4,0,2,2,2,2,2,3,3,3,3,3,0,0,2,0,2,5,6,6,6,6,3,3,5,3,3,6,2,2,2,2,2,2,2,8,29,362.txt
0,0,0,0,0,0,0,0,0,0,0,0,0,0,0,29,0,30,15,0,0,0,9,1,0,4,14,13,16,21,2,2,23,30,2,0,0,4,0,4,1,29,1,1,1,0,0,0,13,9,0,3,3,3,0,13,24,29,3,17,364.txt
0,0,0,0,0,0,0,0,0,0,0,0,0,0,0,28,0,30,15,0,0,0,9,1,0,9,12,1,13,10,9,9,9,8,1,0,0,2,0,2,26,28,26,1,1,0,0,0,4,4,4,3,3,3,0,1,1,1,5,6,365.txt
0,0,0,0,0,0,0,0,0,0,0,0,27,0,0,2,2,2,15,0,0,0,9,1,0,9,12,1,13,10,4,4,4,4,4,0,0,2,0,2,26,28,26,1,1,14,10,25,6,20,2,0,8,12,29,1,1,1,5,6,368.txt
0,0,0,0,0,0,0,0,0,0,0,0,0,0,0,28,0,30,3,10,0,0,18,16,0,19,14,13,16,21,2,2,23,30,2,0,0,2,0,2,4,23,4,4,25,24,15,17,17,18,27,3,3,3,20,3,3,3,29,19,369.txt
0,0,0,0,0,0,0,0,0,0,0,0,0,0,0,28,0,30,15,0,0,0,9,1,0,9,12,1,13,10,9,9,9,8,1,0,0,2,0,2,26,28,26,1,1,1,1,1,1,1,14,1,1,1,1,1,1,1,5,6,371.txt
29,29,1,11,13,28,30,27,22,2,27,28,13,23,19,26,18,4,21,30,1,11,25,11,20,21,22,30,26,26,23,14,15,10,17,4,4,16,24,18,18,30,18,21,19,4,26,4,4,4,27,29,29,23,5,12,20,18,15,18,375.txt
0,0,0,0,0,0,9,8,0,0,0,0,0,0,0,28,0,30,24,10,0,0,18,11,0,7,14,13,16,3,2,2,23,30,2,0,0,4,0,4,10,4,10,16,29,5,27,6,24,28,12,3,3,3,8,28,6,0,3,17,377.txt
0,0,0,0,0,0,0,0,0,0,0,0,0,0,0,28,0,30,15,0,0,0,9,1,0,9,12,1,13,10,9,9,9,8,1,0,0,2,0,2,26,28,26,1,1,1,1,1,1,1,14,1,1,1,1,1,1,1,5,6,380.txt
27,29,1,26,16,28,30,27,16,29,23,9,22,21,22,4,4,15,14,30,19,19,29,4,17,2,2,2,2,2,3,3,3,3,3,4,4,20,25,22,5,6,6,6,6,24,30,25,18,19,5,24,27,26,21,2,2,2,8,29,382.txt
22,0,0,2,0,0,6,22,2,0,0,0,0,0,0,28,0,30,15,0,0,0,9,1,3,9,12,1,13,10,9,9,9,8,1,1,1,7,1,8,26,28,26,1,1,1,1,1,1,1,14,1,1,1,1,1,1,1,5,6,385.txt
17,24,1,23,13,10,2,2,1,21,13,20,13,21,10,19,20,21,23,30,1,11,29,4,22,2,2,2,2,2,3,3,3,3,3,4,4,19,24,27,18,10,13,13,27,4,26,5,3,3,19,2,2,2,2,2,2,2,15,20,386.txt
0,0,0,0,0,0,0,9,0,0,0,0,0,0,0,29,0,0,24,2,0,0,18,12,0,24,22,25,20,26,22,11,16,25,19,0,0,5,0,5,4,14,4,4,12,28,29,15,24,28,8,20,24,24,27,16,19,16,4,29,387.txt
0,0,0,0,0,0,0,0,0,0,0,0,0,0,0,28,0,30,15,10,0,0,9,4,0,2,2,2,2,2,3,3,3,3,3,0,29,2,30,2,5,6,6,6,6,0,0,0,3,3,14,2,2,2,2,2,2,2,0,0,391.txt
0,0,0,0,0,0,0,0,0,0,0,0,0,0,0,29,0,30,24,10,0,0,18,3,0,13,14,13,16,21,2,2,23,30,2,0,0,0,0,0,4,4,4,4,13,5,27,3,0,0,8,3,3,3,5,28,8,16,14,17,394.txt
0,0,0,0,0,0,0,0,0,0,0,0,0,0,0,2,2,2,15,0,0,0,9,1,0,25,6,6,8,8,28,23,26,0,10,0,0,3,0,3,1,1,1,1,1,0,0,0,0,0,0,7,8,12,0,29,7,7,26,8,395.txt
0,0,0,0,0,0,0,0,0,0,0,0,0,0,0,29,0,30,15,0,0,0,9,1,0,9,12,1,13,10,9,9,9,8,1,0,0,3,0,3,1,1,1,1,1,1,1,1,1,1,0,1,1,1,1,1,1,1,5,6,397.txt
22,30,11,2,2,0,6,22,2,17,2,19,2,2,1,28,0,30,15,0,4,4,6,1,3,9,12,1,13,10,9,9,9,8,1,1,1,7,1,8,26,28,26,1,1,1,1,1,1,1,14,1,1,1,1,1,1,1,5,6,400.txt
0,0,13,2,3,0,0,0,30,6,26,13,0,0,0,28,0,30,15,0,3,3,9,1,3,9,12,11,13,10,9,9,9,8,1,1,1,7,7,8,26,28,26,1,1,1,1,1,1,1,14,1,1,1,23,23,25,25,1,6,402.txt
0,0,0,0,0,0,0,0,0,0,0,0,0,0,0,28,0,30,24,10,0,0,18,1,0,2,2,2,2,2,2,2,23,30,2,0,0,2,0,2,26,28,26,1,1,0,0,0,4,4,14,2,2,2,2,2,2,2,0,0,405.txt
0,0,0,0,0,0,0,0,0,0,0,0,0,0,0,28,0,30,15,0,0,0,9,1,0,9,12,1,13,10,9,9,9,8,1,0,28,2,29,2,26,28,26,1,1,0,0,0,27,2,14,0,8,12,22,1,1,1,5,6,407.txt
17,29,1,9,6,20,2,2,1,2,14,17,18,24,10,11,13,15,12,7,1,10,10,12,7,10,14,13,16,21,2,2,23,30,2,4,4,14,16,1,4,4,4,4,29,5,27,6,24,28,8,3,3,3,8,28,24,7,14,17,411.txt
0,0,0,0,0,25,9,12,0,0,0,0,0,0,0,28,0,30,2,5,0,0,2,12,0,7,0,0,26,23,20,22,16,25,15,0,0,2,0,2,4,4,4,4,29,26,24,5,24,28,8,11,28,30,7,28,0,15,9,3,413.txt
0,0,0,0,0,0,0,0,0,0,0,0,0,0,0,28,0,30,15,0,0,0,9,1,0,4,6,6,6,8,9,9,9,8,1,0,28,2,29,2,26,28,26,1,1,0,0,0,0,0,14,0,8,12,5,19,7,16,3,13,416.txt
22,8,11,2,2,27,16,3,2,16,2,5,2,2,28,5,12,5,20,30,4,4,6,1,3,9,12,1,13,10,9,9,9,8,1,17,21,7,16,8,26,28,26,1,1,11,10,2,13,2,14,3,3,3,4,1,1,1,5,6,417.txt
0,0,0,0,0,21,9,8,0,0,0,0,0,0,0,29,0,0,15,0,0,0,9,1,0,9,12,1,13,10,9,9,9,8,1,0,0,0,0,0,27,1,27,1,1,14,10,2,9,8,2,3,3,3,7,1,1,1,5,6,419.txt
0,0,0,0,0,0,0,0,0,0,0,0,0,19,1,28,0,30,24,10,0,0,18,1,10,30,9,8,7,16,2,2,23,30,2,13,13,11,21,20,26,28,26,1,1,5,27,19,4,4,24,3,3,3,4,19,10,13,3,12,421.txt
0,0,0,0,0,0,0,0,0,0,0,0,0,0,0,28,0,0,15,0,0,0,9,1,0,9,12,1,13,10,9,9,9,8,1,0,0,2,0,2,26,28,26,1,1,1,1,1,1,1,14,1,1,1,1,1,1,1,5,6,423.txt
0,0,0,0,0,21,9,8,0,0,0,0,0,0,0,28,0,30,24,10,0,0,18,28,9,5,5,5,7,7,5,12,16,5,18,4,4,13,21,12,4,4,4,4,10,3,3,19,4,4,8,7,14,16,5,13,24,15,13,3,425.txt
0,0,0,0,0,0,0,0,0,0,0,0,0,0,0,28,0,0,30,20,0,0,9,0,0,9,10,10,11,11,2,2,23,30,2,0,0,2,0,2,0,0,0,0,0,1,1,1,1,1,2,1,1,1,1,18,12,11,5,30,427.txt
0,0,0,0,0,0,0,0,0,0,0,0,0,0,0,28,0,0,15,0,0,0,9,1,0,9,12,1,13,10,9,9,9,8,1,0,0,2,0,2,26,28,26,1,1,1,1,1,1,1,2,1,1,1,1,1,1,1,5,6,430.txt
0,0,0,0,0,0,0,0,0,0,0,0,0,0,0,13,3,24,15,25,0,0,9,11,0,4,0,0,30,17,2,2,23,30,2,0,0,2,0,2,26,28,26,1,1,0,0,0,4,4,9,3,3,3,5,13,0,6,3,29,434.txt
0,0,0,0,0,0,0,0,0,0,0,0,0,0,0,28,0,30,15,10,0,0,9,1,0,9,12,1,13,10,9,9,9,8,1,0,0,2,0,2,7,7,7,7,7,20,19,2,13,2,14,0,8,12,8,1,1,1,5,6,436.txt
0,0,0,0,0,0,0,0,0,0,0,0,0,0,0,28,0,30,15,0,0,0,9,1,0,9,12,1,13,10,9,9,9,8,1,0,28,2,29,2,26,28,26,1,1,1,1,1,1,1,14,1,1,1,1,1,1,1,5,6,439.txt
0,0,0,0,0,0,0,0,0,0,0,0,0,0,0,29,0,0,15,0,0,0,9,1,0,9,12,1,13,10,28,23,26,0,10,0,0,0,0,0,26,28,26,1,1,0,0,0,13,2,2,0,8,9,20,1,1,1,5,6,444.txt
0,0,0,0,0,0,0,0,0,0,0,0,0,0,0,28,0,30,15,0,0,0,9,1,0,4,6,6,8,8,28,23,26,0,10,0,0,2,0,2,26,28,26,1,1,0,0,0,9,8,14,0,8,12,8,29,7,7,0,0,447.txt
0,0,0,0,0,0,0,0,0,0,0,0,0,0,0,29,0,0,24,4,22,13,18,21,0,10,24,4,22,18,28,23,26,9,10,8,8,2,6,2,22,11,23,30,12,9,23,2,27,8,25,8,9,10,11,28,8,8,14,8,449.txt
0,0,0,0,0,0,0,0,0,0,0,0,0,0,0,28,0,30,15,0,0,0,9,1,0,9,12,1,13,10,9,9,9,8,1,0,0,2,0,2,26,28,26,1,1,1,1,1,1,1,14,1,1,1,1,1,1,1,5,6,452.txt
0,0,0,0,0,0,0,0,0,0,0,0,4,0,0,2,2,2,15,0,0,0,9,1,0,2,2,2,2,2,3,3,3,3,3,0,29,30,30,4,26,28,26,1,1,0,0,0,3,3,14,2,2,2,2,2,2,2,0,0,454.txt
0,0,0,0,0,0,0,0,0,0,0,0,0,0,0,28,0,30,15,0,0,0,9,1,0,9,12,1,13,10,9,9,9,8,1,0,0,2,0,2,26,28,26,1,1,0,0,0,4,4,14,0,8,12,3,1,1,1,5,6,456.txt
0,0,0,0,0,0,0,0,0,0,0,0,0,0,0,28,0,30,29,20,0,0,9,1,0,9,10,10,11,11,26,18,21,27,29,0,0,2,0,2,25,26,25,24,30,1,1,1,1,1,14,1,1,1,1,18,12,11,5,30,458.txt
0,0,0,0,0,0,0,0,0,0,0,0,0,0,0,28,0,30,15,0,0,0,9,1,0,2,2,2,2,2,2,2,23,30,2,0,0,2,0,2,26,28,26,1,1,0,0,0,3,3,14,2,2,2,2,2,2,2,0,0,460.txt
0,0,0,0,0,0,0,0,0,0,0,0,0,0,0,28,0,30,24,10,0,0,18,1,0,4,6,6,8,8,12,11,16,18,19,0,0,2,0,2,26,28,26,1,1,12,10,15,11,12,8,20,14,12,27,29,24,7,14,29,463.txt
0,0,0,0,0,0,0,0,0,0,0,0,0,0,0,28,0,30,24,10,0,0,18,4,0,2,2,2,2,2,2,2,23,30,2,0,0,3,0,3,5,6,6,6,6,5,27,6,0,0,6,2,2,2,2,2,2,2,3,17,465.txt
0,0,0,0,0,0,0,0,0,0,0,0,0,0,0,28,0,30,15,10,0,0,9,1,0,16,14,13,16,21,2,2,23,30,2,0,0,2,0,2,26,28,26,1,1,0,0,0,4,4,14,3,3,3,4,3,3,3,3,17,469.txt
22,30,11,2,2,1,6,22,2,16,2,5,2,2,1,5,12,5,12,7,4,4,6,1,3,9,12,1,13,10,9,9,9,8,1,13,13,7,16,8,26,28,26,1,1,0,0,0,13,2,3,0,8,12,8,1,1,1,5,6,472.txt
0,0,0,0,0,0,0,0,0,0,0,0,0,0,0,28,0,30,18,19,0,0,18,12,0,16,4,21,4,5,10,13,14,10,19,0,0,2,0,2,12,4,12,12,29,12,10,8,16,17,14,10,14,16,22,13,24,28,3,29,473.txt
0,0,0,0,0,0,0,0,0,0,0,0,0,0,0,28,0,30,15,0,0,0,9,1,0,9,12,1,13,10,9,9,9,8,1,0,0,2,0,2,26,28,26,1,1,0,0,0,0,0,4,3,3,3,0,1,1,1,5,6,475.txt
0,0,0,0,0,0,0,0,0,0,0,0,0,0,0,28,0,30,15,10,0,0,9,1,0,9,12,1,13,10,9,9,9,8,1,0,0,2,0,2,26,28,26,1,1,0,0,0,0,0,14,3,3,3,0,1,1,1,5,6,477.txt
0,0,0,0,0,0,0,0,0,0,0,0,0,0,0,28,0,30,15,0,0,0,9,1,0,9,12,1,13,10,9,9,9,8,1,0,0,2,0,2,26,28,26,1,1,0,0,0,4,4,14,3,3,3,5,1,1,1,5,6,479.txt
0,0,0,0,0,0,0,0,0,0,0,0,0,0,0,28,0,30,15,0,0,0,9,1,0,2,2,2,2,2,2,2,23,30,2,0,0,2,0,2,26,28,26,1,1,0,0,0,3,3,14,2,2,2,2,2,2,2,0,0,481.txt
0,0,0,0,0,0,0,0,0,0,0,0,0,0,0,28,0,30,15,0,0,0,9,1,0,9,12,1,13,10,9,9,9,8,1,0,0,2,0,2,26,28,26,1,1,1,1,1,1,1,14,1,1,1,1,1,1,1,5,6,485.txt
0,0,0,0,0,0,0,0,0,0,0,0,0,0,0,28,0,30,15,0,0,0,9,1,0,9,12,1,13,10,9,9,9,8,1,0,0,2,0,2,26,28,26,1,1,1,1,1,1,1,14,1,1,1,1,1,1,1,5,6,487.txt
0,0,0,0,0,0,0,0,0,0,0,0,0,0,0,28,0,30,15,0,0,0,9,1,0,9,12,1,13,10,9,9,9,8,1,0,0,2,0,2,26,28,26,1,1,0,0,0,17,18,14,3,3,3,8,1,1,1,5,6,488.txt
0,0,0,0,0,0,0,0,0,0,0,0,0,0,0,28,0,0,15,0,0,0,9,1,0,9,12,1,13,10,9,9,9,8,1,0,0,2,0,2,26,28,26,1,1,1,1,1,1,1,14,1,1,1,1,1,1,1,5,6,491.txt
0,0,0,0,0,0,0,0,0,0,0,0,0,0,0,28,0,30,15,0,0,0,9,1,0,9,12,1,13,10,9,9,9,8,1,0,0,2,0,2,26,28,26,1,1,0,0,0,0,0,14,3,3,3,0,1,1,1,5,6,492.txt
0,0,0,0,0,0,0,0,0,0,0,0,0,0,0,28,0,30,24,10,0,0,18,4,0,2,2,2,2,2,2,2,23,30,2,0,0,2,0,2,26,28,26,1,1,0,0,0,4,4,6,2,2,2,2,2,2,2,0,0,494.txt
0,0,0,0,0,21,20,8,0,0,0,0,0,0,0,23,0,30,24,10,0,0,18,28,0,4,4,21,8,18,28,23,26,9,10,0,0,0,0,0,14,14,17,20,10,3,3,5,10,11,8,20,14,16,8,6,24,8,26,8,496.txt
0,0,0,0,0,0,0,0,0,0,0,0,0,0,0,28,0,0,15,0,0,0,9,0,0,9,12,1,13,10,2,2,23,30,2,0,0,2,0,2,0,0,0,0,0,1,1,1,1,1,2,1,1,1,1,1,1,1,5,6,498.txt
0,0,0,0,0,0,0,0,0,0,0,0,0,0,0,28,0,30,15,0,0,0,9,1,0,9,12,1,13,10,9,9,9,8,1,0,0,2,0,2,26,28,26,1,1,0,0,0,0,0,4,3,3,3,0,1,1,1,5,6,500.txt
0,0,0,0,0,0,0,0,0,0,0,0,0,0,0,28,0,30,24,10,0,0,18,3,0,4,7,20,30,18,17,11,13,16,11,0,0,2,0,2,14,4,17,20,11,27,25,19,12,10,8,23,9,10,5,13,8,16,25,29,502.txt
0,0,0,0,0,0,0,0,0,0,0,0,0,0,0,28,0,30,15,0,0,0,9,1,3,2,2,2,2,2,3,3,3,3,3,1,1,7,1,8,26,28,26,1,1,0,0,0,3,3,14,2,2,2,2,2,2,2,0,0,503.txt
0,0,0,0,0,0,0,0,0,0,0,0,0,0,0,3,3,3,5,3,0,0,8,1,0,7,6,6,22,8,14,11,13,11,5,0,0,2,0,2,26,28,26,1,1,0,0,0,4,4,8,7,9,12,0,29,8,7,26,13,505.txt
0,0,0,0,0,0,0,0,0,0,0,0,0,0,0,28,0,30,15,0,0,0,9,1,0,9,12,1,13,10,9,9,9,8,1,0,0,2,0,2,26,28,26,1,1,1,1,1,1,1,14,1,1,1,1,1,1,1,5,6,507.txt
0,0,0,0,0,0,0,0,0,0,0,0,0,0,0,28,0,30,24,10,0,0,18,1,0,2,2,2,2,2,2,2,23,30,2,0,0,2,0,2,26,28,26,1,1,11,10,20,3,3,6,2,2,2,2,2,2,2,8,17,510.txt
0,0,0,0,0,0,0,0,0,0,0,0,0,0,0,28,0,30,15,0,0,0,9,1,0,9,12,1,13,10,9,9,9,8,1,0,29,2,30,2,26,28,26,1,1,0,0,0,13,2,14,3,3,3,22,1,1,1,5,6,513.txt
0,0,0,0,0,0,0,0,0,0,0,0,0,0,0,28,0,0,15,0,0,0,9,1,0,9,12,1,13,10,9,9,9,8,1,0,0,2,0,2,26,28,26,1,1,1,1,1,1,1,2,1,1,1,1,1,1,1,5,6,516.txt
0,0,0,0,0,3,9,8,14,4,15,18,12,0,0,3,24,3,15,3,0,0,9,11,4,7,4,21,22,18,28,23,26,0,10,0,0,0,0,0,18,4,10,21,29,0,0,0,4,4,8,11,14,16,5,28,6,8,13,24,518.txt
17,8,17,1,16,27,3,3,13,21,17,12,18,30,27,5,12,5,21,30,14,11,25,16,7,12,25,4,22,19,28,23,26,0,10,23,21,14,12,27,13,13,23,30,12,22,10,20,2,8,29,9,8,12,19,29,7,7,29,21,521.txt
22,8,11,1,16,20,15,3,4,2,14,2,22,19,29,5,12,5,12,7,25,10,10,1,10,7,9,8,18,17,12,11,16,18,23,13,13,11,15,27,26,28,26,1,1,0,0,0,7,15,20,8,12,14,22,8,10,16,21,22,524.txt
0,0,0,0,0,21,9,8,0,0,0,0,0,1,28,23,0,30,24,10,0,0,18,3,10,4,15,14,17,14,2,2,23,30,2,4,4,11,21,12,4,4,4,4,11,5,27,19,4,4,8,3,3,3,5,6,0,9,14,3,527.txt
0,0,0,0,0,0,0,0,0,0,0,0,0,0,0,28,0,30,15,0,0,0,9,1,0,9,12,1,13,10,9,9,9,8,1,0,0,2,0,2,26,28,26,1,1,1,1,1,1,1,14,1,1,1,1,1,1,1,5,6,529.txt
0,0,0,0,0,0,0,0,0,0,0,0,0,0,0,28,0,30,15,10,0,0,9,1,0,2,2,2,2,2,9,9,9,8,1,0,0,2,0,2,26,28,26,1,1,0,0,0,3,3,14,2,2,2,2,2,2,2,0,0,530.txt
0,0,0,0,0,0,0,0,0,0,0,0,0,0,0,2,2,2,15,0,0,0,9,1,0,2,2,2,2,2,9,9,9,8,1,0,0,2,0,2,26,28,26,1,1,0,0,0,4,4,14,2,2,2,2,2,2,2,0,0,532.txt
0,0,0,0,0,0,0,0,0,0,0,0,0,0,0,28,0,30,24,10,0,0,18,10,0,13,7,20,26,6,20,10,16,20,23,0,0,2,0,2,4,4,4,4,11,19,18,3,22,25,8,7,9,10,25,28,8,6,26,13,534.txt
0,0,0,0,0,0,0,0,0,0,0,0,0,0,0,28,0,30,15,0,0,0,9,1,0,9,12,1,13,10,9,9,9,8,1,0,29,2,30,2,26,28,26,1,1,1,1,1,1,1,14,1,1,1,1,1,1,1,5,6,536.txt
0,0,0,0,0,0,0,0,0,0,0,0,0,0,0,28,0,30,15,0,0,0,9,1,0,9,12,1,13,10,9,9,9,8,1,0,0,2,0,2,26,28,26,1,1,1,1,1,1,1,14,1,1,1,1,1,1,1,5,6,538.txt
0,0,0,0,0,0,0,0,0,0,0,0,0,0,0,28,0,30,15,10,0,0,9,4,0,2,2,2,2,2,3,3,3,3,3,0,0,4,0,4,5,6,6,6,6,0,0,0,3,3,0,2,2,2,2,2,2,2,0,0,541.txt
0,0,0,0,0,0,0,0,0,0,0,0,0,0,0,28,0,30,15,0,0,0,9,1,0,9,12,1,13,10,9,9,9,8,1,0,0,2,0,2,26,28,26,1,1,0,0,0,4,4,14,3,3,3,5,1,1,1,5,6,543.txt
0,0,0,0,0,0,0,0,0,0,0,0,0,0,0,28,0,30,15,0,0,0,9,1,0,9,12,1,13,10,9,9,9,8,1,0,0,2,0,2,26,28,26,1,1,1,1,1,1,1,14,1,1,1,1,1,1,1,5,6,545.txt
0,0,0,0,0,0,0,0,0,0,0,0,0,0,0,28,0,0,24,4,0,0,18,1,0,9,12,1,13,10,2,2,23,30,2,0,0,2,0,2,26,28,26,1,1,5,27,19,24,28,4,5,5,5,12,1,1,1,5,6,549.txt
0,0,0,0,0,0,0,0,0,0,0,0,0,0,0,28,0,30,15,0,0,0,9,1,0,24,6,6,6,8,12,11,16,18,20,0,0,2,0,2,26,28,26,1,1,0,0,0,0,0,14,12,8,12,5,29,7,16,13,29,551.txt
0,0,0,0,0,0,0,0,0,0,0,0,0,0,0,28,0,30,15,0,0,0,9,1,0,9,12,1,13,10,9,9,9,8,1,0,0,2,0,2,26,28,26,1,1,0,0,0,4,4,14,3,3,3,0,1,1,1,5,6,554.txt
0,0,0,0,0,0,0,0,0,0,0,0,0,0,0,13,3,24,5,25,0,0,8,11,0,25,18,18,30,17,12,11,16,18,11,0,0,3,0,3,1,29,1,1,1,3,3,19,4,4,8,7,20,21,5,13,0,16,25,29,557.txt
0,0,0,0,0,0,0,0,0,0,0,0,0,0,0,28,0,30,24,10,0,0,18,12,0,21,14,13,16,21,2,2,23,30,2,0,29,2,30,2,4,4,4,4,29,5,27,6,24,28,8,3,3,3,25,28,16,15,13,17,558.txt
0,0,0,0,0,0,0,0,0,0,0,0,0,0,0,28,0,30,15,0,0,0,9,1,0,2,2,2,2,2,9,9,9,8,1,0,29,2,30,2,26,28,26,1,1,0,0,0,4,4,14,2,2,2,2,2,2,2,0,0,561.txt
17,29,16,9,6,20,3,23,22,2,14,17,15,21,19,19,13,15,12,7,1,11,25,20,13,10,4,6,22,8,28,23,26,9,10,18,23,14,16,27,18,4,10,21,24,3,3,5,5,6,12,20,14,16,8,28,24,8,13,8,564.txt
0,0,0,0,0,0,0,0,0,0,0,0,0,0,0,28,0,30,15,0,0,0,9,1,0,7,14,13,16,21,2,2,23,30,2,0,0,2,0,2,26,28,26,1,1,20,19,2,13,2,14,3,3,3,8,29,7,7,14,17,566.txt
0,0,0,0,0,0,0,0,0,0,0,0,0,0,0,28,0,30,24,10,0,0,18,3,0,4,14,13,16,21,2,2,23,30,2,0,0,2,0,2,14,4,17,16,11,5,27,19,12,10,12,3,3,3,5,13,8,7,3,17,568.txt
0,0,0,0,0,0,0,0,0,0,0,0,0,0,0,28,0,30,15,0,0,0,9,1,0,4,14,13,16,21,9,9,9,8,1,0,0,2,0,2,26,28,26,1,1,0,0,0,13,2,8,3,3,3,8,29,7,7,3,17,572.txt
0,0,0,0,0,0,0,0,0,0,0,0,0,0,0,28,0,0,24,2,0,0,18,1,0,9,12,1,13,10,9,9,9,8,1,0,0,2,0,2,26,28,26,1,1,5,27,3,0,0,8,3,3,3,0,1,1,1,5,6,574.txt
0,0,0,0,0,0,0,0,0,0,0,0,0,0,0,2,2,2,15,0,0,0,9,1,0,30,9,8,4,5,12,13,14,18,12,0,0,2,0,2,26,28,26,1,1,0,0,0,4,4,14,10,12,14,4,19,10,13,3,29,576.txt
0,0,0,0,0,0,0,0,0,0,0,0,0,0,0,28,0,0,15,0,0,0,9,1,0,9,12,1,13,10,9,9,9,8,1,0,0,2,0,2,26,28,26,1,1,1,1,1,1,1,2,1,1,1,1,1,1,1,5,6,578.txt
0,0,0,0,0,0,0,0,0,0,0,0,0,0,0,3,8,3,5,3,0,0,8,1,0,2,2,2,2,2,3,3,3,3,3,0,0,2,0,2,26,28,26,1,1,3,3,6,4,4,6,2,2,2,2,2,2,2,0,0,580.txt
0,0,0,0,0,0,0,0,0,0,0,0,0,0,0,28,0,30,15,0,0,0,9,1,0,9,12,1,13,10,9,9,9,8,1,0,0,2,0,2,26,28,26,1,1,1,1,1,1,1,14,1,1,1,1,1,1,1,5,6,582.txt
0,0,0,0,0,0,0,0,0,0,0,0,0,0,0,28,0,0,15,0,0,0,9,1,0,9,12,1,13,10,9,9,9,8,1,0,0,2,0,2,26,28,26,1,1,1,1,1,1,1,2,1,1,1,1,1,1,1,5,6,584.txt
22,8,1,1,16,20,2,2,1,25,14,2,8,1,28,5,12,5,1,1,10,1,1,1,10,16,14,13,16,21,2,2,23,30,2,13,13,29,21,13,26,28,26,1,1,0,0,0,4,4,8,3,3,3,5,29,7,16,3,17,586.txt
0,0,0,0,0,0,0,0,0,0,0,0,0,0,0,28,0,0,15,0,0,0,9,1,0,9,12,1,13,10,9,9,9,8,1,0,0,2,0,2,26,28,26,1,1,0,0,0,4,4,8,3,3,3,5,1,1,1,5,6,588.txt
0,0,0,0,0,0,0,0,0,0,0,0,0,0,0,28,0,30,5,10,0,0,8,1,0,4,20,25,21,26,13,30,30,18,12,0,0,2,0,2,26,28,26,1,1,20,19,29,11,12,14,20,20,21,17,19,14,29,24,12,591.txt
0,0,0,0,0,0,0,0,0,0,0,0,0,0,0,28,0,30,15,0,0,0,9,1,0,4,5,5,7,7,14,11,16,11,12,0,0,2,0,2,26,28,26,1,1,0,0,0,4,4,14,8,9,12,0,13,8,6,3,13,594.txt
0,0,0,0,0,0,0,0,0,0,0,0,0,0,0,28,0,30,15,0,0,0,9,1,0,9,12,1,13,10,9,9,9,8,1,0,0,2,0,2,26,28,26,1,1,1,1,1,1,1,14,1,1,1,1,1,1,1,5,6,596.txt
0,0,0,0,0,0,0,0,0,0,0,0,0,0,0,28,0,0,24,2,0,0,18,1,0,9,12,1,13,10,9,9,9,8,1,0,0,2,0,2,26,28,26,1,1,1,1,1,1,1,2,1,1,1,1,1,1,1,5,1,598.txt
0,0,0,0,0,0,0,0,0,0,0,0,0,0,0,28,0,0,15,0,0,0,9,1,0,9,12,1,13,10,9,9,9,8,1,0,0,2,0,2,26,28,26,1,1,0,0,0,4,4,14,3,3,3,5,1,1,1,5,6,600.txt
0,0,0,0,0,0,0,0,0,0,0,0,0,0,0,28,0,30,15,0,0,0,9,1,0,9,12,1,13,10,9,9,9,8,1,0,0,2,0,2,26,28,26,1,1,1,1,1,1,1,14,1,1,1,1,1,1,1,5,6,603.txt
0,0,0,0,0,0,0,0,0,0,0,0,0,0,0,28,0,30,24,10,0,0,18,1,0,2,2,2,2,2,2,2,23,30,2,0,0,2,0,2,26,28,26,1,1,0,0,0,4,4,6,2,2,2,2,2,2,2,0,0,604.txt
0,0,0,0,0,0,0,0,0,0,0,0,0,0,0,0,0,0,15,0,0,0,9,1,0,9,12,1,13,10,20,11,13,20,11,0,0,2,0,2,26,28,26,1,1,0,0,0,4,4,14,0,16,17,3,1,1,1,5,6,606.txt
0,0,0,0,0,0,0,0,0,0,0,0,0,0,0,28,0,30,15,0,0,0,9,1,0,9,12,1,13,10,9,9,9,8,1,0,0,2,0,2,26,28,26,1,1,20,19,23,9,8,14,0,8,12,20,1,1,1,5,6,607.txt
0,0,0,0,0,0,0,0,0,0,0,0,0,0,0,28,0,0,24,13,0,0,18,4,0,2,2,2,2,2,2,2,23,30,2,0,0,2,0,2,5,6,6,6,6,5,27,6,3,3,6,2,2,2,2,2,2,2,0,0,613.txt
0,0,0,0,0,0,0,0,0,0,0,0,0,0,0,28,0,0,15,0,0,0,9,1,0,9,12,1,13,10,9,9,9,8,1,0,29,2,30,2,26,28,26,1,1,1,1,1,1,1,14,1,1,1,1,1,1,1,5,6,615.txt
0,0,0,0,0,0,0,0,0,0,0,0,0,0,0,28,0,0,15,0,0,0,9,1,0,9,12,1,13,10,9,9,9,8,1,0,0,2,0,2,26,28,26,1,1,1,1,1,1,1,2,1,1,1,1,1,1,1,5,6,618.txt
0,0,0,0,0,0,0,0,0,0,0,0,0,0,0,29,0,0,30,20,0,0,9,1,0,9,10,10,11,11,26,18,21,27,29,0,28,2,29,2,25,26,25,24,30,1,1,1,1,1,14,1,1,1,1,18,12,11,5,30,621.txt
22,0,0,2,0,0,2,2,2,0,0,0,0,0,0,28,0,30,15,0,0,0,9,1,3,9,12,1,13,10,9,9,9,8,1,14,14,7,18,8,26,28,26,1,1,1,1,1,1,1,14,1,1,1,1,1,1,1,5,6,623.txt
17,29,1,23,13,29,3,27,20,2,19,28,22,1,28,25,18,4,21,18,1,1,1,11,7,10,5,5,22,7,28,23,26,0,10,14,14,14,16,27,12,4,12,12,29,4,26,5,4,4,20,28,10,11,5,28,9,8,15,20,624.txt
0,0,0,0,0,0,0,0,0,0,0,0,0,0,0,28,0,30,15,0,0,0,9,1,0,9,12,1,13,10,9,9,9,8,1,0,0,2,0,2,26,28,26,1,1,1,1,1,1,1,14,1,1,1,1,1,1,1,5,6,627.txt
0,0,0,0,0,0,0,0,0,0,0,0,0,0,0,28,0,30,15,0,0,0,9,1,0,9,12,1,13,10,9,9,9,8,1,0,0,2,0,2,26,28,26,1,1,1,1,1,1,1,14,1,1,1,1,1,1,1,5,6,628.txt
0,0,0,0,0,0,0,0,0,0,0,0,0,0,0,28,0,30,15,0,0,0,9,1,0,9,12,1,13,10,9,9,9,8,1,0,0,2,0,2,26,28,26,1,1,1,1,1,1,1,14,1,1,1,1,1,1,1,5,6,629.txt
3,29,11,30,16,27,16,3,16,16,10,5,1,23,29,18,19,12,20,29,19,24,25,1,19,9,12,1,13,10,2,2,24,2,26,20,26,15,18,23,26,28,26,1,1,12,30,25,6,20,29,5,5,5,20,1,1,1,5,6,631.txt
0,0,0,0,0,30,9,8,18,4,15,11,5,0,0,7,7,7,2,4,22,6,2,12,8,4,5,5,21,7,10,30,30,10,12,5,5,5,10,5,18,30,18,21,29,12,7,28,10,11,12,11,14,16,27,13,24,10,3,3,633.txt
0,0,0,0,0,0,0,0,0,0,0,0,0,0,0,28,0,30,15,0,0,0,9,1,0,9,12,1,13,10,9,9,9,8,1,0,0,2,0,2,26,28,26,1,1,1,1,1,1,1,14,1,1,1,1,1,1,1,5,6,635.txt
0,0,0,0,0,0,0,0,0,0,0,0,0,0,0,28,0,30,24,10,0,0,18,1,0,9,12,1,13,10,9,9,9,8,1,0,0,2,0,2,26,28,26,1,1,0,0,0,4,4,8,3,3,3,0,1,1,1,5,6,637.txt
0,0,0,0,0,0,0,0,0,0,0,0,0,0,0,29,0,0,15,0,0,0,9,1,0,9,12,1,13,10,9,9,9,8,1,0,0,0,0,0,27,1,27,1,1,20,19,25,6,20,0,5,5,5,28,1,1,1,5,6,642.txt
0,0,0,0,0,0,0,0,0,0,0,0,0,0,0,28,0,30,30,21,0,0,9,1,0,9,10,9,11,9,25,18,20,27,28,0,29,2,30,2,24,26,24,24,30,0,0,0,4,4,14,3,3,3,4,18,12,11,5,1,645.txt
27,29,1,30,16,27,30,3,16,21,23,9,20,24,18,5,12,5,23,30,19,11,25,17,22,26,22,25,18,26,14,10,16,11,16,4,4,11,15,27,16,4,15,15,18,29,30,25,6,20,5,29,20,21,28,12,13,23,2,2,647.txt
0,0,0,0,0,12,0,0,14,28,5,23,3,0,0,2,2,2,15,0,0,0,9,1,4,9,12,1,13,10,9,9,9,8,1,0,0,6,0,6,26,28,26,1,1,1,1,1,1,1,14,1,1,1,1,1,1,1,5,6,650.txt
0,0,0,0,0,0,0,0,0,0,0,0,0,0,0,28,0,30,15,10,0,0,9,4,0,2,2,2,2,2,2,2,23,30,2,0,29,2,30,2,5,6,6,6,6,20,19,15,3,3,14,2,2,2,2,2,2,2,0,0,652.txt
0,0,0,0,0,0,0,0,0,0,0,0,0,0,0,28,0,0,15,2,0,0,9,1,0,9,12,1,13,10,2,2,23,30,2,0,29,2,30,2,26,28,26,1,1,0,0,0,0,0,2,3,3,3,0,1,1,1,5,6,654.txt
0,0,0,0,0,0,0,0,0,0,0,0,0,0,0,28,0,30,24,10,0,0,18,1,0,7,14,13,16,21,2,2,23,30,2,0,0,2,0,2,26,28,26,1,1,5,27,5,24,28,14,3,3,3,8,29,7,7,3,17,657.txt
0,0,0,0,0,0,0,0,0,0,0,0,0,0,0,28,0,30,15,0,0,0,9,1,0,9,12,1,13,10,9,9,9,8,1,0,0,2,0,2,26,28,26,1,1,1,1,1,1,1,2,1,1,1,1,1,1,1,5,6,658.txt
0,0,0,0,0,0,0,0,0,0,0,0,0,8,6,28,0,0,2,2,0,0,2,0,0,4,17,17,21,17,4,4,4,4,4,3,6,2,0,2,0,0,0,0,0,18,17,4,6,20,2,0,16,17,11,22,13,10,3,3,662.txt
0,0,0,0,0,0,0,0,0,0,0,0,0,0,0,2,2,2,15,0,0,0,9,1,0,9,12,1,13,10,9,9,9,8,1,0,29,2,30,2,26,28,26,1,1,0,0,0,13,2,14,0,16,29,20,1,1,1,5,6,663.txt
0,0,0,0,0,0,0,0,0,0,0,0,0,0,0,28,0,30,15,0,0,0,9,1,0,9,12,1,13,10,9,9,9,8,1,0,0,2,0,2,26,28,26,1,1,1,1,1,1,1,14,1,1,1,1,1,1,1,5,6,665.txt
0,0,0,0,0,0,0,0,0,0,0,0,0,0,0,28,0,30,15,0,0,0,9,1,0,9,12,1,13,10,9,9,9,8,1,0,0,2,0,2,26,28,26,1,1,1,1,1,1,1,14,1,1,1,1,1,1,1,5,6,669.txt
0,0,0,0,0,0,0,0,0,0,0,0,0,0,0,28,0,30,15,0,0,0,9,1,0,9,12,1,13,10,9,9,9,8,1,0,0,2,0,2,26,28,26,1,1,20,19,2,4,4,14,2,2,2,2,1,1,1,5,6,671.txt
0,0,13,3,3,0,0,0,3,6,26,13,0,0,0,28,0,30,15,0,2,2,9,1,0,2,2,2,2,2,2,2,23,30,2,0,0,2,0,2,26,28,26,1,1,20,19,15,3,3,14,2,2,2,2,2,2,2,0,0,673.txt
0,0,0,0,0,0,0,0,0,0,0,0,0,0,0,28,0,30,15,0,0,0,9,1,0,9,12,1,13,10,9,9,9,8,1,0,0,2,0,2,26,28,26,1,1,0,0,0,3,3,14,2,2,2,2,1,1,1,5,6,675.txt
17,21,1,9,6,10,2,2,1,2,13,17,22,1,28,4,4,4,1,1,1,1,1,3,10,13,4,21,18,18,14,11,16,11,15,4,4,11,15,1,4,4,4,4,29,27,25,19,12,10,27,11,14,16,5,11,24,16,15,19,678.txt
0,0,0,0,0,0,0,0,0,0,0,0,0,0,0,28,0,30,15,0,0,0,9,1,0,9,12,1,13,10,9,9,9,8,1,0,0,3,0,3,26,28,26,1,1,1,1,1,1,1,14,1,1,1,1,1,1,1,5,6,680.txt
0,0,0,0,0,0,0,0,0,0,0,0,0,0,0,28,0,30,15,0,0,0,9,1,0,9,12,1,13,10,9,9,9,8,1,0,0,2,0,2,26,28,26,1,1,1,1,1,1,1,14,1,1,1,1,1,1,1,5,6,683.txt
0,0,0,0,0,0,0,0,0,0,0,0,0,0,0,28,0,0,15,0,0,0,9,1,0,9,12,1,13,10,9,9,9,8,1,0,0,2,0,2,26,28,26,1,1,1,1,1,1,1,14,1,1,1,1,1,1,1,5,6,685.txt
0,0,0,0,0,0,0,0,0,0,0,0,0,0,0,28,0,30,15,0,0,0,9,1,0,9,12,1,13,10,9,9,9,8,1,0,0,2,0,2,26,28,26,1,1,1,1,1,1,1,14,1,1,1,1,1,1,1,5,6,687.txt
0,0,0,0,0,0,0,0,0,0,0,0,0,0,0,28,0,30,15,0,0,0,9,1,0,9,12,1,13,10,9,9,9,8,1,0,0,2,0,2,26,28,26,1,1,1,1,1,1,1,14,1,1,1,1,1,1,1,5,6,689.txt
0,0,0,0,0,0,0,0,0,0,0,0,0,0,0,28,0,30,15,10,0,0,9,1,0,2,2,2,2,2,3,3,3,3,3,0,0,2,0,2,26,28,26,1,1,20,19,20,3,3,14,2,2,2,2,2,2,2,0,0,691.txt
17,29,16,23,13,28,12,13,24,24,21,30,11,23,27,26,29,28,21,30,16,23,25,12,7,16,24,6,8,8,28,23,26,0,10,21,20,14,16,13,14,4,17,20,29,17,23,30,10,11,12,29,8,12,20,29,7,7,13,29,695.txt
0,0,0,0,0,0,0,0,0,0,0,0,0,0,0,28,0,30,15,0,0,0,9,1,0,9,12,1,13,10,9,9,9,8,1,0,0,2,0,2,26,28,26,1,1,1,1,1,1,1,14,1,1,1,1,1,1,1,5,6,696.txt
22,30,11,1,16,1,6,22,1,17,13,19,8,1,1,28,0,30,15,0,16,1,1,1,9,2,2,2,2,2,2,2,23,30,2,1,1,13,1,12,26,28,26,1,1,0,0,0,4,4,14,2,2,2,2,2,2,2,0,0,700.txt
0,0,0,0,0,0,0,0,0,0,0,0,0,0,0,3,8,3,15,3,0,0,9,1,0,2,2,2,2,2,3,3,3,3,3,0,0,2,0,2,26,28,26,1,1,0,0,0,4,4,14,2,2,2,2,2,2,2,0,0,703.txt
22,8,11,1,24,10,3,3,24,2,13,17,11,1,28,5,12,5,12,7,26,1,1,1,7,9,12,1,13,10,28,23,26,0,10,13,13,14,16,27,26,28,26,1,1,0,0,0,2,15,12,0,8,12,20,1,1,1,5,6,705.txt
0,0,0,0,0,0,0,0,0,0,0,0,0,0,0,28,0,30,15,0,0,0,9,1,0,9,12,1,13,10,9,9,9,8,1,0,0,2,0,2,26,28,26,1,1,0,0,0,0,0,14,2,2,2,2,1,1,1,5,6,706.txt
0,0,0,0,0,0,0,0,0,0,0,0,0,0,0,12,3,24,15,28,0,0,9,1,0,4,6,20,8,18,28,23,26,0,10,0,0,2,0,2,26,28,26,1,1,0,0,0,13,15,12,8,8,12,25,29,7,7,3,8,709.txt
0,0,0,0,0,0,0,0,0,0,0,0,0,0,0,2,2,2,15,0,0,0,9,1,0,9,12,1,13,10,28,23,26,0,10,0,0,2,0,2,26,28,26,1,1,0,0,0,13,2,14,0,8,12,8,1,1,1,5,6,711.txt
0,0,0,0,0,0,0,0,0,0,0,0,4,0,0,2,2,2,15,0,22,6,9,1,0,4,6,6,8,8,9,9,9,8,1,5,5,2,6,2,26,28,26,1,1,20,19,25,6,20,14,0,8,12,29,29,7,16,3,29,712.txt
0,0,0,0,0,25,9,8,0,0,0,0,0,0,0,23,0,30,24,25,0,0,19,12,0,10,4,21,22,18,28,23,26,0,10,0,0,3,0,3,14,4,17,20,29,12,10,8,24,28,8,20,14,16,8,28,24,8,13,13,713.txt
0,0,0,0,0,21,0,0,0,0,0,0,0,0,0,28,0,0,24,2,0,0,18,0,0,4,14,13,16,21,2,2,23,30,2,30,11,2,0,2,0,0,0,0,0,5,27,4,7,15,2,3,3,3,11,3,3,3,3,17,716.txt
0,0,0,0,0,0,9,8,0,0,0,0,0,0,0,28,0,30,3,10,0,0,18,12,0,13,14,13,16,21,2,2,23,30,2,0,0,2,0,2,14,4,17,16,11,5,27,3,30,6,20,3,3,3,25,28,24,0,15,20,722.txt
0,0,0,0,0,0,0,0,0,0,0,0,0,0,0,28,0,30,15,0,0,0,9,1,0,9,12,1,13,10,9,9,9,8,1,0,29,3,30,3,26,28,26,1,1,0,0,0,4,4,14,23,28,30,5,1,1,1,5,6,724.txt
0,0,0,0,0,21,0,0,0,0,0,0,0,8,6,29,0,0,24,2,0,0,18,0,0,6,14,13,16,13,6,8,6,7,6,6,25,2,0,2,0,0,0,0,0,14,21,23,27,8,2,4,4,4,11,3,3,3,3,17,727.txt
0,0,0,0,0,0,0,0,0,0,0,0,0,0,0,28,0,30,15,0,0,0,9,4,0,2,2,2,2,2,2,2,23,30,2,0,0,3,0,3,5,6,6,6,6,0,0,0,3,3,14,2,2,2,2,2,2,2,0,0,728.txt
0,0,0,0,0,0,0,0,0,0,0,0,0,0,0,28,0,30,15,0,0,0,9,1,0,9,12,1,13,10,9,9,9,8,1,0,0,2,0,2,26,28,26,1,1,1,1,1,1,1,14,1,1,1,1,1,1,1,5,6,732.txt
0,0,0,0,0,0,0,0,0,0,0,0,0,0,0,2,2,2,15,0,0,0,9,1,0,9,12,1,13,10,9,9,9,8,1,0,0,3,0,3,26,28,26,1,1,1,1,1,1,1,14,1,1,1,1,1,1,1,5,6,734.txt
17,0,0,9,0,0,2,2,1,0,0,0,0,0,0,28,0,30,24,10,0,0,18,7,0,24,0,0,30,17,20,21,16,20,20,0,0,2,0,2,4,4,4,4,9,3,3,19,4,4,8,12,24,24,5,13,0,15,9,29,735.txt
0,0,0,0,0,0,0,0,0,0,0,0,0,0,0,28,0,30,15,0,0,0,9,1,0,9,12,1,13,10,9,9,9,8,1,0,28,2,29,2,26,28,26,1,1,0,0,0,4,4,14,3,3,3,5,1,1,1,5,6,737.txt
0,0,0,0,0,0,0,0,0,0,0,0,0,0,0,28,0,30,15,0,0,0,9,1,0,9,12,1,13,10,9,9,9,8,1,0,0,2,0,2,26,28,26,1,1,0,0,0,4,4,4,3,3,3,0,1,1,1,5,6,738.txt
0,0,0,0,0,0,0,0,0,0,0,0,0,0,0,28,0,0,15,0,0,0,9,1,0,9,12,1,13,10,9,9,9,8,1,0,0,2,0,2,26,28,26,1,1,1,1,1,1,1,4,1,1,1,1,1,1,1,5,6,741.txt
0,0,0,0,0,0,0,0,0,0,0,0,0,0,0,29,0,30,15,0,0,0,9,1,0,9,12,1,13,10,9,9,9,8,1,0,0,0,0,0,1,1,1,1,1,0,0,0,13,2,0,0,8,9,8,1,1,1,5,6,743.txt
0,0,0,0,0,0,0,0,0,0,0,0,0,0,0,28,0,30,15,0,0,0,9,1,0,9,12,1,13,10,9,9,9,8,1,0,0,2,0,2,26,28,26,1,1,0,0,0,4,4,14,0,8,12,5,1,1,1,5,6,747.txt
0,0,0,0,0,0,0,0,0,0,0,0,0,0,0,23,0,30,4,10,0,0,17,12,0,10,4,21,26,18,5,30,30,5,15,0,0,5,0,5,4,4,4,4,29,26,24,5,24,28,27,20,14,16,8,11,24,28,19,20,748.txt
0,0,0,0,0,0,0,0,0,0,0,0,0,0,0,28,0,30,24,10,0,0,18,1,0,9,12,1,13,10,9,9,9,8,1,0,29,2,30,2,26,28,26,1,1,5,27,6,4,4,8,3,3,3,5,1,1,1,5,6,751.txt
27,8,24,1,24,29,3,3,29,21,19,29,18,30,7,5,12,5,21,30,11,12,12,21,7,12,3,3,3,21,2,2,24,2,2,23,20,14,12,23,13,23,23,16,13,30,10,25,6,20,30,5,5,5,19,22,7,8,23,28,755.txt
0,0,0,0,0,0,0,0,0,0,0,0,0,0,0,3,3,3,15,3,5,13,9,1,0,2,2,2,2,2,3,3,3,3,3,10,10,2,6,2,26,28,26,1,1,0,0,0,3,3,14,2,2,2,2,2,2,2,8,13,756.txt
0,0,0,2,0,0,0,0,0,0,0,0,0,0,0,28,0,30,15,0,0,0,9,1,3,9,12,1,13,10,9,9,9,8,1,1,1,7,1,8,26,28,26,1,1,1,1,1,1,1,14,1,1,1,1,1,1,1,5,6,760.txt
0,0,0,0,0,0,0,0,0,0,0,0,0,0,0,28,0,0,15,0,0,0,9,1,0,9,12,1,13,10,9,9,9,8,1,0,0,2,0,2,26,28,26,1,1,1,1,1,1,1,2,1,1,1,1,1,1,1,5,6,765.txt
0,0,0,0,0,0,0,0,0,0,0,0,0,0,3,28,0,0,15,2,6,13,9,1,0,9,12,1,13,10,9,9,9,8,1,10,10,2,2,2,26,28,26,1,1,0,0,0,13,2,4,0,8,12,0,1,1,1,5,6,766.txt
0,0,0,0,0,0,0,0,0,0,0,0,0,0,0,28,0,30,15,0,0,0,9,1,0,9,12,1,13,10,9,9,9,8,1,0,0,2,0,2,26,28,26,1,1,0,0,0,0,0,14,3,3,3,0,1,1,1,5,6,768.txt
0,0,0,0,0,0,0,0,0,0,0,0,0,0,0,28,0,30,4,5,0,0,16,11,0,7,7,20,22,19,28,23,26,0,10,0,0,2,0,2,14,4,17,20,11,19,18,3,4,4,12,26,9,10,5,28,8,7,26,13,771.txt
0,0,0,0,0,0,0,0,0,0,0,0,0,0,0,28,0,30,15,0,0,0,9,1,0,9,12,1,13,10,9,9,9,8,1,0,0,2,0,2,26,28,26,1,1,0,0,0,4,4,14,3,3,3,0,1,1,1,5,6,772.txt
0,0,0,0,0,0,0,0,0,0,0,0,0,0,0,28,0,0,15,0,0,0,9,1,0,9,12,1,13,10,9,9,9,8,1,0,0,2,0,2,26,28,26,1,1,1,1,1,1,1,2,1,1,1,1,1,1,1,5,6,773.txt
0,0,0,0,0,0,0,0,0,0,0,0,0,0,0,28,0,30,15,0,0,0,9,1,0,9,12,1,13,10,9,9,9,8,1,0,0,2,0,2,26,28,26,1,1,1,1,1,1,1,14,1,1,1,1,1,1,1,5,6,775.txt
0,0,0,0,0,0,0,0,0,0,0,0,0,0,0,29,0,30,4,10,0,0,16,11,0,25,7,20,30,18,22,11,16,20,11,0,0,3,0,3,4,4,4,4,14,27,25,19,4,4,8,7,9,10,5,13,8,6,26,13,777.txt
0,0,0,0,0,0,0,0,0,0,0,0,0,0,0,28,0,30,24,28,0,0,18,12,0,7,4,6,22,8,2,2,23,30,2,0,29,2,30,2,10,4,10,16,29,12,10,20,13,15,8,3,3,3,8,28,24,0,3,13,779.txt
0,0,0,0,0,0,0,0,0,0,0,0,0,0,0,28,0,30,15,0,0,0,9,1,0,9,12,1,13,10,9,9,9,8,1,0,0,2,0,2,26,28,26,1,1,1,1,1,1,1,14,1,1,1,1,1,1,1,5,6,781.txt
0,0,0,0,0,0,0,0,0,0,0,0,0,0,0,28,0,30,15,0,0,0,9,1,0,9,12,1,13,10,9,9,9,8,1,0,0,2,0,2,26,28,26,1,1,0,0,0,4,4,14,3,3,3,0,1,1,1,5,6,785.txt
0,0,0,0,0,0,0,0,0,0,0,0,0,0,0,28,0,0,15,0,0,0,9,1,0,9,12,1,13,10,9,9,9,8,1,0,29,2,30,2,26,28,26,1,1,1,1,1,1,1,14,1,1,1,1,1,1,1,5,6,787.txt
22,30,11,2,2,1,6,22,2,17,2,19,2,2,1,2,2,2,15,0,4,4,6,1,3,9,12,1,13,10,9,9,9,8,1,1,1,7,1,8,26,28,26,1,1,0,0,0,4,4,14,0,20,21,4,1,1,1,5,6,790.txt
0,0,0,0,0,0,0,0,0,0,0,0,0,0,0,28,0,30,15,3,0,0,9,1,0,2,2,2,2,2,3,3,3,3,3,0,0,2,0,2,26,28,26,1,1,0,0,0,3,3,14,2,2,2,2,2,2,2,3,13,792.txt
0,0,0,0,0,0,0,0,0,0,0,0,0,0,0,28,0,30,24,10,0,0,18,1,0,2,2,2,2,2,3,3,3,3,3,0,0,2,0,2,26,28,26,1,1,0,0,0,4,4,14,2,2,2,2,2,2,2,0,0,796.txt
0,0,0,0,0,0,0,0,0,0,0,0,0,0,0,28,0,30,15,0,0,0,9,1,0,9,12,1,13,10,9,9,9,8,1,0,0,2,0,2,26,28,26,1,1,0,0,0,9,2,14,3,3,3,20,1,1,1,5,6,800.txt
0,0,0,0,0,0,0,0,0,0,0,0,0,0,0,28,0,30,30,20,0,0,9,1,0,9,10,9,11,9,26,18,21,27,29,0,0,2,0,2,25,26,25,24,30,0,0,0,13,2,14,3,3,3,20,18,12,11,5,7,802.txt
5,0,0,1,0,6,13,3,11,4,15,18,5,0,0,3,3,3,2,3,0,0,2,4,4,2,2,2,2,2,3,3,3,3,3,0,0,6,0,6,5,6,6,6,6,0,0,0,3,3,14,2,2,2,2,2,2,2,8,3,806.txt
0,0,0,0,0,0,0,0,0,0,0,0,0,0,0,28,0,30,15,0,0,0,9,1,0,9,12,1,13,10,9,9,9,8,1,0,0,2,0,2,26,28,26,1,1,1,1,1,1,1,14,1,1,1,1,1,1,1,5,6,807.txt
0,0,0,0,0,0,0,0,0,0,0,0,0,0,0,28,0,30,15,0,0,0,9,1,0,9,12,1,13,10,9,9,9,8,1,0,0,2,0,2,26,28,26,1,1,1,1,1,1,1,14,1,1,1,1,1,1,1,5,6,810.txt
0,0,0,0,0,0,0,0,0,0,0,0,0,0,0,28,0,0,15,0,0,0,9,1,0,9,12,1,13,10,9,9,9,8,1,0,0,2,0,2,26,28,26,1,1,1,1,1,1,1,2,1,1,1,1,1,1,1,5,6,813.txt
22,8,11,1,16,27,3,19,13,14,16,30,17,1,28,5,12,5,20,30,14,1,1,30,7,12,6,4,22,19,13,30,30,18,14,20,21,14,16,27,21,24,21,27,17,11,11,10,13,8,25,0,8,12,8,29,7,7,18,29,816.txt
0,0,0,0,0,0,0,0,0,0,0,0,0,0,0,28,0,0,24,2,0,0,18,0,0,9,12,1,13,10,2,2,23,30,2,0,0,2,0,2,0,0,0,0,0,1,1,1,1,1,2,1,1,1,1,1,1,1,5,6,817.txt
0,0,0,0,0,0,0,0,0,0,0,0,0,0,0,28,0,30,15,0,0,0,9,5,0,9,12,1,13,10,9,9,9,8,1,0,0,2,0,2,26,28,26,1,1,0,0,0,6,20,14,20,8,12,19,1,1,1,5,6,818.txt
0,0,0,0,0,0,0,0,0,0,0,0,0,0,3,29,0,0,5,2,6,13,16,0,0,9,12,1,13,10,4,4,4,4,4,10,10,2,2,2,0,0,0,0,0,1,1,1,1,1,2,1,1,1,1,1,1,1,5,1,821.txt
0,0,0,0,0,0,0,0,0,0,0,0,0,0,0,28,0,30,24,10,0,0,18,11,0,7,14,13,16,3,2,2,23,30,2,0,0,0,0,0,10,4,10,16,11,5,27,3,4,4,12,3,3,3,5,28,6,7,3,17,824.txt
0,0,0,0,0,0,0,0,0,0,0,0,0,0,0,28,0,30,3,10,0,0,18,1,0,9,12,1,13,10,9,9,9,8,1,0,0,2,0,2,26,28,26,1,1,20,19,2,9,2,14,20,24,24,20,1,1,1,5,6,827.txt
22,30,16,1,16,1,6,22,16,17,13,19,22,19,1,5,12,5,12,7,1,11,29,1,28,2,2,2,2,2,2,2,23,30,2,1,1,11,1,1,26,28,26,1,1,0,0,0,3,3,14,2,2,2,2,2,2,2,0,0,831.txt
0,0,0,0,0,0,0,0,0,0,0,0,0,0,0,28,0,0,15,0,0,0,9,1,0,9,12,1,13,10,9,9,9,8,1,0,0,2,0,2,26,28,26,1,1,1,1,1,1,1,8,1,1,1,1,1,1,1,5,6,832.txt
0,0,0,0,0,0,0,0,0,0,0,0,0,0,0,0,0,30,15,0,0,0,9,1,0,7,14,13,16,21,2,2,23,30,2,0,28,3,29,3,1,1,1,1,1,0,0,0,4,4,0,3,3,3,0,3,3,3,3,17,834.txt
0,0,0,0,0,0,0,0,0,0,0,0,4,0,0,2,2,2,15,0,0,0,9,1,0,7,17,17,19,23,9,9,9,8,1,0,0,2,0,2,26,28,26,1,1,0,0,0,19,22,14,20,20,21,20,24,22,13,13,29,836.txt
0,0,0,0,0,0,0,0,0,0,0,0,0,0,0,28,0,30,15,0,0,0,9,1,0,4,14,13,16,21,9,9,9,8,1,0,0,2,0,2,26,28,26,1,1,0,0,0,13,15,12,3,3,3,20,19,7,13,3,17,839.txt
22,30,11,2,2,1,6,22,2,17,2,19,2,2,1,28,0,30,15,0,4,4,6,1,3,9,12,1,13,10,9,9,9,8,1,1,1,7,1,8,26,28,26,1,1,20,19,2,13,2,14,3,3,3,20,1,1,1,5,6,842.txt
0,0,0,0,0,0,0,0,0,0,0,0,0,0,0,28,0,0,15,0,0,0,9,1,0,9,12,1,13,10,9,9,9,8,1,0,29,2,30,2,26,28,26,1,1,1,1,1,1,1,14,1,1,1,1,1,1,1,5,6,847.txt
0,0,0,0,0,0,0,0,0,0,0,0,0,0,0,28,0,0,30,20,0,0,9,1,0,9,10,10,11,11,26,18,21,27,28,0,0,2,0,2,24,26,24,24,30,1,1,1,1,1,14,1,1,1,1,18,12,11,5,30,851.txt
0,0,0,0,0,0,0,0,0,0,0,0,0,0,0,28,0,30,16,10,0,0,14,12,0,10,4,6,26,8,14,11,16,11,24,0,0,2,0,2,4,30,4,4,29,3,3,5,24,28,20,26,14,16,8,11,24,16,19,20,852.txt
0,0,0,0,0,0,0,0,0,0,0,0,0,0,0,28,0,30,15,0,0,0,9,1,0,9,12,1,13,10,9,9,9,8,1,0,0,2,0,2,26,28,26,1,1,0,0,0,13,2,14,3,3,3,20,1,1,1,5,6,855.txt
0,0,0,0,0,0,0,0,0,0,0,0,4,0,0,3,14,3,15,3,0,0,9,4,0,2,2,2,2,2,3,3,3,3,3,0,0,3,0,3,5,6,6,6,6,0,0,0,4,4,6,2,2,2,2,2,2,2,0,0,857.txt
0,0,0,0,0,0,0,0,0,30,0,0,25,20,23,27,30,30,15,0,0,0,9,9,29,9,12,1,13,10,9,9,9,8,1,0,0,2,0,29,6,5,5,5,5,1,1,1,1,1,14,1,1,1,1,1,1,1,5,6,859.txt
0,0,0,0,0,0,0,0,0,0,0,0,0,0,0,28,0,30,15,0,0,0,9,1,0,9,12,1,13,10,9,9,9,8,1,0,0,2,0,2,26,28,26,1,1,1,1,1,1,1,14,1,1,1,1,1,1,1,5,6,861.txt
0,0,0,0,0,12,0,0,14,28,28,18,12,0,0,2,2,2,15,0,0,0,9,1,0,9,12,1,13,10,9,9,9,8,1,0,0,6,0,6,26,28,26,1,1,1,1,1,1,1,8,1,1,1,1,1,1,1,5,6,864.txt
0,0,0,0,0,0,0,0,0,0,0,0,0,0,0,28,0,30,24,10,0,0,3,3,0,4,14,13,16,21,2,2,23,30,2,0,0,3,0,3,14,4,17,16,29,5,27,19,0,0,9,3,3,3,5,13,24,0,3,4,866.txt
0,0,0,0,0,0,0,0,0,0,0,0,0,0,0,16,8,11,24,28,0,0,18,28,0,4,14,13,16,21,2,2,23,30,2,0,0,2,0,2,4,4,4,4,10,11,13,8,10,11,12,3,3,3,20,13,14,29,13,17,868.txt
0,0,0,0,0,0,0,0,0,0,0,0,0,0,0,28,0,0,10,13,0,0,7,16,0,5,17,17,21,17,4,4,4,4,4,0,0,2,0,2,4,19,4,4,12,18,17,4,13,2,2,0,24,24,7,15,18,15,26,12,870.txt
0,0,0,0,0,0,0,0,0,0,0,0,0,0,0,28,0,30,15,0,0,0,9,1,0,9,12,1,13,10,9,9,9,8,1,0,0,2,0,2,26,28,26,1,1,0,0,0,4,4,14,3,3,3,5,1,1,1,5,6,872.txt
0,0,0,0,0,0,0,0,0,0,0,0,0,0,0,28,0,30,15,3,0,0,9,1,0,16,6,6,8,8,0,0,0,0,0,0,0,2,0,2,26,28,26,1,1,0,0,0,0,0,9,7,8,12,0,29,7,7,3,8,874.txt
0,0,0,0,0,0,0,0,0,0,0,0,0,0,0,28,0,0,15,0,0,0,9,1,0,9,12,1,13,10,9,9,9,8,1,0,0,2,0,2,26,28,26,1,1,1,1,1,1,1,4,1,1,1,1,1,1,1,5,6,879.txt
0,0,0,0,0,0,0,0,0,0,0,0,0,0,0,28,0,0,15,0,0,0,9,1,0,9,12,1,13,10,9,9,9,8,1,0,0,2,0,2,26,28,26,1,1,1,1,1,1,1,14,1,1,1,1,1,1,1,5,1,882.txt
0,0,0,0,0,0,0,0,0,0,0,0,0,0,0,12,3,18,5,28,0,0,18,21,0,4,24,20,8,18,28,23,26,0,10,0,0,2,0,2,13,11,23,30,12,4,26,5,13,15,12,15,9,10,20,0,8,0,3,29,884.txt
0,0,0,0,0,0,0,0,0,0,0,0,0,0,0,28,0,30,15,0,0,0,9,1,0,9,12,1,13,10,9,9,9,8,1,0,0,2,0,2,26,28,26,1,1,1,1,1,1,1,14,1,1,1,1,1,1,1,5,6,885.txt
0,0,0,0,0,0,0,0,0,0,0,0,0,0,0,28,0,0,15,0,0,0,9,1,0,9,12,1,13,10,9,9,9,8,1,0,0,2,0,2,26,28,26,1,1,1,1,1,1,1,14,1,1,1,1,1,1,1,5,6,886.txt
0,0,0,0,0,0,0,0,0,0,0,0,0,0,0,28,0,30,15,0,0,0,9,1,0,5,5,5,21,7,9,9,9,8,1,0,0,2,0,2,26,28,26,1,1,0,0,0,13,2,8,7,8,12,20,29,7,15,0,0,889.txt
0,0,0,0,0,0,0,0,0,0,0,0,3,0,0,2,2,2,15,0,0,0,9,1,0,9,12,1,13,10,12,30,29,18,20,0,29,2,30,2,26,28,26,1,1,1,1,1,1,1,2,1,1,1,1,1,1,1,5,6,891.txt
0,0,0,0,0,0,0,0,0,0,0,0,0,0,0,28,0,30,15,0,0,0,9,1,0,2,2,2,2,2,9,9,9,8,1,0,0,2,0,2,26,28,26,1,1,0,0,0,4,4,14,2,2,2,2,2,2,2,0,0,893.txt
0,0,0,0,0,0,0,0,0,0,0,0,0,0,0,28,0,30,15,0,0,0,9,1,0,2,2,2,2,2,2,2,23,30,2,0,0,2,0,2,26,28,26,1,1,0,0,0,0,0,14,2,2,2,2,2,2,2,0,0,896.txt
0,30,1,0,16,0,0,0,0,17,13,19,8,1,1,28,0,30,15,10,16,1,1,1,7,2,2,2,2,2,3,3,3,3,3,1,1,14,1,12,26,28,26,1,1,0,0,0,0,0,6,2,2,2,2,2,2,2,0,0,900.txt
0,0,0,0,0,0,0,0,0,0,0,0,0,0,0,28,0,30,15,0,0,0,9,1,0,9,12,1,13,10,9,9,9,8,1,0,0,2,0,2,26,28,26,1,1,0,0,0,13,2,14,3,3,3,20,1,1,1,5,6,902.txt
27,12,24,23,24,18,3,28,29,21,11,28,22,23,20,26,17,28,20,30,11,12,12,17,16,23,24,20,10,20,28,23,26,0,10,28,20,14,12,16,23,9,22,23,13,14,10,25,6,20,17,18,22,12,16,29,7,8,23,21,905.txt
0,0,0,0,0,0,0,0,0,0,0,0,0,0,0,28,0,30,15,0,0,0,9,1,0,9,12,1,13,10,9,9,9,8,1,0,0,2,0,2,26,28,26,1,1,1,1,1,1,1,14,1,1,1,1,1,1,1,5,6,907.txt
0,0,0,0,0,0,0,0,0,0,0,0,0,0,0,28,0,0,15,0,0,0,9,1,0,9,12,1,13,10,9,9,9,8,1,0,0,2,0,2,26,28,26,1,1,1,1,1,1,1,2,1,1,1,1,1,1,1,5,6,909.txt
0,0,0,0,0,0,0,0,0,0,0,0,0,0,0,28,0,30,15,10,0,0,9,11,0,4,14,13,16,21,2,2,23,30,2,0,0,2,0,2,4,4,4,4,24,0,0,0,4,4,8,3,3,3,5,13,24,7,13,17,911.txt
0,0,0,0,0,0,0,0,0,0,0,0,0,0,0,28,0,0,24,2,0,0,18,0,0,9,10,10,11,11,2,2,23,30,2,0,0,2,0,2,0,0,0,0,0,1,1,1,1,1,2,1,1,1,1,18,12,11,5,30,914.txt
17,30,16,23,13,1,6,22,20,21,23,9,22,21,1,19,20,26,23,6,19,11,29,4,28,2,2,2,2,2,3,3,3,3,3,17,20,23,24,27,5,6,6,6,6,20,19,8,3,3,14,2,2,2,2,2,2,2,2,2,917.txt
22,1,11,2,2,0,6,22,2,17,2,19,2,2,1,28,0,30,15,0,4,4,6,1,3,9,12,1,13,10,9,9,9,8,1,1,1,7,1,8,26,28,26,1,1,1,1,1,1,1,14,1,1,1,1,1,1,1,5,6,922.txt
0,0,0,0,0,0,0,0,0,0,0,0,0,0,0,28,0,30,15,0,0,0,9,1,0,9,12,1,13,10,9,9,9,8,1,0,0,5,0,5,26,28,26,1,1,1,1,1,1,1,14,1,1,1,1,1,1,1,5,6,924.txt
0,0,0,0,0,0,0,0,0,0,0,0,0,0,0,28,0,30,15,0,0,0,9,1,0,9,12,1,13,10,9,9,9,8,1,0,0,2,0,2,26,28,26,1,1,0,0,0,4,4,14,2,2,2,2,1,1,1,5,6,925.txt
0,0,0,0,0,0,0,0,0,0,0,0,0,0,0,28,0,30,15,0,0,0,9,1,0,2,2,2,2,2,9,9,9,8,1,0,0,2,0,2,26,28,26,1,1,0,0,0,4,4,14,2,2,2,2,2,2,2,0,0,926.txt
17,0,0,9,0,0,12,23,11,0,0,0,0,21,18,28,0,30,4,10,0,0,16,11,10,5,4,6,21,8,20,11,16,25,12,4,4,11,21,13,4,4,4,4,29,3,3,6,4,4,8,7,14,16,5,13,24,16,13,29,928.txt
0,0,0,0,0,0,0,0,0,0,0,0,0,0,0,28,0,30,15,0,0,0,9,1,0,2,2,2,2,2,2,2,23,30,2,0,0,2,0,2,26,28,26,1,1,0,0,0,3,3,6,2,2,2,2,2,2,2,0,0,930.txt
0,0,0,0,0,0,0,0,0,0,0,0,0,0,0,28,0,30,15,0,0,0,9,1,0,9,12,1,13,10,12,11,16,18,23,0,0,2,0,2,26,28,26,1,1,0,0,0,13,2,14,0,8,12,26,1,1,1,5,6,932.txt
22,30,11,2,2,1,6,22,2,17,2,19,2,2,1,5,12,5,20,6,4,4,6,1,3,9,12,1,13,10,9,9,9,8,1,1,1,7,1,8,7,7,7,7,7,1,1,1,1,1,3,1,1,1,1,1,1,1,5,6,935.txt
0,0,0,0,0,0,9,8,0,0,0,0,0,0,0,28,0,30,24,10,0,0,19,7,0,4,4,21,8,18,28,23,26,9,10,0,0,3,0,3,4,4,4,4,9,18,17,5,13,15,8,16,14,16,8,13,24,8,26,3,940.txt
0,0,0,0,0,0,0,0,0,0,0,0,0,0,0,28,0,30,15,0,0,0,9,1,0,5,18,18,21,17,9,9,9,8,1,0,0,2,0,2,26,28,26,1,1,0,0,0,4,4,14,26,28,30,5,8,22,15,0,0,942.txt
27,29,28,30,13,18,30,27,22,29,23,9,20,26,22,26,28,15,14,30,19,19,25,27,17,20,30,27,26,26,20,21,12,23,5,15,15,28,25,22,16,4,15,15,18,15,29,15,24,28,8,23,28,30,7,12,21,15,11,11,944.txt
0,0,0,0,0,0,0,0,0,0,0,0,0,0,0,28,0,30,15,0,0,0,9,1,0,9,12,1,13,10,9,9,9,8,1,0,0,2,0,2,26,28,26,1,1,1,1,1,1,1,14,1,1,1,1,1,1,1,5,6,946.txt
0,0,0,0,0,0,0,0,0,0,0,0,0,0,0,28,0,30,15,0,0,0,9,1,0,9,12,1,13,10,9,9,9,8,1,0,0,2,0,2,26,28,26,1,1,0,0,0,4,4,14,3,3,3,0,1,1,1,5,6,949.txt
0,0,0,0,0,0,0,0,0,0,0,0,0,0,0,28,0,0,24,2,0,0,18,21,0,7,14,13,16,21,2,2,23,30,2,0,0,2,0,2,4,23,4,4,4,5,27,19,13,2,2,3,3,3,20,19,13,16,3,17,951.txt
0,0,0,0,0,0,0,0,0,0,0,0,0,0,0,28,0,30,15,10,0,0,9,4,0,2,2,2,2,2,2,2,23,30,2,0,0,2,0,2,12,4,12,12,10,0,0,0,3,3,14,2,2,2,2,2,2,2,3,17,954.txt
0,0,0,0,0,0,0,0,0,0,0,0,0,0,0,28,0,30,24,10,0,0,18,0,0,9,12,1,13,10,2,2,23,30,2,0,0,2,0,2,0,0,0,0,0,14,13,2,9,2,2,3,3,3,20,1,1,1,5,6,956.txt
0,0,0,0,0,0,0,0,0,0,0,0,0,2,1,28,0,30,15,0,0,0,9,1,3,9,12,1,13,10,9,9,9,8,1,20,21,7,24,8,26,28,26,1,1,1,1,1,1,1,14,1,1,1,1,1,1,1,5,6,959.txt
0,0,0,0,0,0,0,0,0,0,0,0,0,0,0,28,0,30,15,0,0,0,9,1,0,9,12,1,13,10,9,9,9,8,1,0,0,2,0,2,26,28,26,1,1,1,1,1,1,1,14,1,1,1,1,1,1,1,5,6,961.txt
0,0,0,0,0,0,0,0,0,0,0,0,0,0,0,28,0,30,15,0,0,0,9,1,0,9,12,1,13,10,9,9,9,8,1,0,0,2,0,2,26,28,26,1,1,1,1,1,1,1,14,1,1,1,1,1,1,1,5,6,962.txt
0,0,0,0,0,0,0,0,0,0,0,0,0,0,0,28,0,0,15,2,0,0,9,1,0,4,6,6,8,8,2,2,23,30,2,0,29,2,30,2,26,28,26,1,1,0,0,0,10,11,14,3,3,3,6,29,7,7,3,8,964.txt
0,0,0,0,0,0,0,0,0,0,0,0,0,0,0,28,0,30,15,0,0,0,9,1,0,9,12,1,13,10,9,9,9,8,1,0,0,2,0,2,26,28,26,1,1,28,10,29,11,12,14,3,3,3,28,1,1,1,5,6,966.txt
0,0,0,0,0,0,0,0,0,0,0,0,0,0,0,28,0,30,15,0,0,0,9,1,0,9,12,1,13,10,9,9,9,8,1,0,0,2,0,2,26,28,26,1,1,20,19,2,13,2,14,0,8,12,4,1,1,1,5,6,968.txt
0,0,0,0,0,0,0,0,0,0,0,0,0,0,0,28,0,0,15,0,0,0,9,1,0,9,12,1,13,10,9,9,9,8,1,0,0,2,0,2,26,28,26,1,1,1,1,1,1,1,14,1,1,1,1,1,1,1,5,6,970.txt
0,0,0,0,0,0,0,0,0,0,0,0,0,0,0,28,0,0,15,0,0,0,9,1,0,9,12,1,13,10,9,9,9,8,1,0,28,2,29,2,26,28,26,1,1,1,1,1,1,1,14,1,1,1,1,1,1,1,5,6,974.txt
0,0,0,0,0,0,0,0,0,0,0,0,0,0,0,28,0,30,29,20,0,0,9,1,0,9,10,9,11,9,26,18,21,27,29,0,0,2,0,2,25,26,25,24,30,0,0,0,4,4,14,3,3,3,5,18,12,11,5,7,975.txt
0,0,0,0,0,0,0,0,0,0,0,0,0,0,0,28,0,30,15,0,0,0,9,1,0,23,6,6,26,8,9,9,9,8,1,0,0,2,0,2,26,28,26,1,1,15,10,29,26,30,14,20,22,12,7,21,7,16,18,23,979.txt
0,0,0,0,0,0,0,0,0,0,0,0,0,0,0,29,0,30,15,0,22,6,9,16,0,23,14,13,16,21,2,2,23,30,2,5,5,0,6,0,12,10,12,12,18,28,11,17,28,26,7,4,4,4,8,9,7,8,27,17,981.txt
0,0,0,0,0,0,0,0,0,0,0,0,0,0,0,28,0,30,15,0,0,0,9,1,0,13,14,13,16,21,9,9,9,8,1,0,0,2,0,2,26,28,26,1,1,0,0,0,0,0,14,3,3,3,5,19,0,13,0,0,987.txt
0,0,0,0,0,0,0,0,0,0,0,0,0,0,0,2,2,2,15,0,0,0,9,1,0,9,12,1,13,10,28,23,26,0,10,0,0,5,0,5,1,1,1,1,1,11,10,20,13,2,0,0,8,9,8,1,1,1,5,6,989.txt
22,30,11,2,2,1,6,22,2,17,2,19,2,2,1,18,13,23,12,7,4,4,6,1,3,2,2,2,2,2,2,2,23,30,2,1,1,7,1,8,26,28,26,1,1,0,0,0,3,3,27,2,2,2,2,2,2,2,0,0,994.txt
0,0,0,0,0,0,0,0,0,0,0,0,0,0,0,28,0,0,15,0,0,0,9,1,0,9,12,1,13,10,9,9,9,8,1,0,0,2,0,2,26,28,26,1,1,1,1,1,1,1,2,1,1,1,1,1,1,1,5,6,996.txt
0,0,0,0,0,0,0,0,0,0,0,0,0,0,0,28,0,30,15,0,0,0,9,1,0,9,12,1,13,10,9,9,9,8,1,0,0,2,0,2,26,28,26,1,1,0,0,0,4,4,14,0,8,12,5,1,1,1,5,6,998.txt
0,0,0,0,0,0,0,0,0,0,0,0,0,0,0,28,0,0,15,0,0,0,9,1,0,9,12,1,13,10,9,9,9,8,1,0,0,2,0,2,26,28,26,1,1,1,1,1,1,1,14,1,1,1,1,1,1,1,5,6,1002.txt
0,0,0,0,0,0,0,0,0,0,0,0,0,0,0,28,0,0,5,13,0,0,16,1,0,9,12,1,13,10,20,10,16,25,14,0,0,2,0,2,26,28,26,1,1,14,21,25,6,20,2,0,16,17,7,1,1,1,5,6,1005.txt
0,0,0,0,0,0,0,0,0,0,0,0,0,0,0,28,0,30,15,0,0,0,9,1,0,9,12,1,13,10,9,9,9,8,1,0,28,2,29,2,26,28,26,1,1,1,1,1,1,1,14,1,1,1,1,1,1,1,5,6,1008.txt
0,0,0,0,0,0,0,0,0,0,0,0,0,0,0,12,8,24,15,24,0,0,9,1,0,9,12,1,13,10,9,9,9,8,1,0,0,2,0,2,26,28,26,1,1,0,0,0,13,2,8,0,8,12,19,1,1,1,5,6,1010.txt
0,0,0,0,0,0,0,0,0,0,0,0,0,0,0,28,0,30,15,0,0,0,9,1,0,9,12,1,13,10,9,9,9,8,1,0,29,2,30,2,26,28,26,1,1,1,1,1,1,1,14,1,1,1,1,1,1,1,5,6,1013.txt
0,0,0,0,0,0,0,0,0,0,0,0,0,0,0,28,0,30,15,0,0,0,9,1,0,9,12,1,13,10,9,9,9,8,1,0,0,2,0,2,26,28,26,1,1,12,10,24,11,12,14,3,3,3,22,1,1,1,5,6,1015.txt
0,0,0,0,0,0,0,0,0,0,0,0,0,0,0,28,0,30,15,0,0,0,9,1,0,9,12,1,13,10,9,9,9,8,1,0,29,2,30,2,26,28,26,1,1,1,1,1,1,1,14,1,1,1,1,1,1,1,5,6,1018.txt
22,8,1,1,16,10,3,19,13,14,13,17,15,19,19,5,12,5,12,7,14,22,25,1,16,12,6,6,22,8,28,23,26,0,10,14,14,14,27,27,26,28,26,1,1,9,10,2,2,2,24,8,8,12,8,29,7,7,25,8,1020.txt
0,0,0,0,0,0,0,0,0,0,0,0,0,0,8,29,0,0,25,2,22,6,19,21,0,23,14,13,16,21,2,2,23,30,2,5,5,5,6,5,4,10,4,4,12,14,16,25,6,20,17,5,5,5,16,3,3,3,29,21,1022.txt
0,0,0,0,0,0,0,0,0,0,0,0,0,0,0,28,0,0,15,2,0,0,9,1,0,7,14,13,16,21,2,2,23,30,2,0,0,2,0,2,26,28,26,1,1,0,0,0,19,22,14,3,3,3,6,29,7,16,14,17,1025.txt
0,0,0,0,0,0,0,0,0,0,0,0,4,0,0,2,2,2,15,0,0,0,9,1,0,9,12,1,13,10,9,9,9,8,1,0,0,2,0,2,26,28,26,1,1,20,19,10,9,2,14,15,0,0,20,1,1,1,5,6,1027.txt
0,0,0,0,0,21,0,0,0,0,0,0,0,0,0,29,0,0,24,2,0,0,18,0,0,12,14,13,16,21,2,2,23,30,2,0,0,2,0,2,0,0,0,0,0,14,10,25,6,20,2,3,3,3,4,22,8,9,3,17,1030.txt
0,0,0,0,0,0,0,0,0,0,0,0,0,0,0,28,0,30,15,0,0,0,9,1,0,9,12,1,13,10,9,9,9,8,1,0,29,2,30,2,26,28,26,1,1,1,1,1,1,1,14,1,1,1,1,1,1,1,5,6,1036.txt
0,0,0,0,0,0,0,0,0,0,0,0,0,0,0,28,0,0,15,2,0,0,9,1,0,9,12,1,13,10,9,9,9,8,1,0,0,2,0,2,26,28,26,1,1,1,1,1,1,1,2,1,1,1,1,1,1,1,5,6,1041.txt
0,0,0,0,0,0,0,0,0,0,0,0,0,0,0,28,0,0,24,10,0,0,18,4,0,2,2,2,2,2,3,3,3,3,3,0,29,2,30,2,4,4,4,4,13,28,10,8,3,3,14,2,2,2,2,2,2,2,8,13,1043.txt
0,0,0,0,0,0,0,0,0,0,0,0,0,0,0,28,0,0,15,0,0,0,9,1,0,9,12,1,13,10,22,30,30,25,20,0,0,2,0,2,26,28,26,1,1,1,1,1,1,1,14,1,1,1,1,1,1,1,5,6,1045.txt
0,0,0,0,0,0,0,0,0,0,0,0,0,0,0,28,0,30,15,0,0,0,9,1,0,9,12,1,13,10,9,9,9,8,1,0,0,2,0,2,26,28,26,1,1,1,1,1,1,1,14,1,1,1,1,1,1,1,5,6,1046.txt
0,0,0,0,0,0,0,0,0,0,0,0,0,0,0,3,8,3,11,3,0,0,18,17,0,26,30,27,26,26,22,26,30,23,16,0,0,2,0,2,4,10,4,4,25,24,29,12,25,6,16,20,17,18,4,28,14,19,3,29,1048.txt
0,0,0,0,0,0,0,0,0,0,0,0,0,0,0,28,0,30,15,0,0,0,9,1,0,9,12,1,13,10,9,9,9,8,1,0,29,2,30,2,26,28,26,1,1,20,19,23,9,2,14,3,3,3,30,1,1,1,5,6,1051.txt
0,0,0,0,0,0,0,0,0,0,0,0,0,0,0,28,0,30,15,0,0,0,9,1,0,9,12,1,13,10,9,9,9,8,1,0,0,2,0,2,26,28,26,1,1,1,1,1,1,1,14,1,1,1,1,1,1,1,5,6,1054.txt
0,0,0,0,0,0,0,0,0,0,0,0,0,0,0,28,0,30,24,10,0,0,18,1,0,9,12,1,13,10,9,9,9,8,1,0,0,2,0,2,7,7,7,7,7,22,29,15,17,18,12,5,5,5,16,1,1,1,5,6,1057.txt
0,0,0,0,0,0,0,0,0,0,0,0,0,0,0,28,0,30,15,0,0,0,9,1,0,9,12,1,13,10,9,9,9,8,1,0,0,2,0,2,26,28,26,1,1,0,0,0,4,4,14,0,8,12,5,1,1,1,5,6,1059.txt
0,0,0,0,0,0,0,0,0,0,0,0,0,0,0,28,0,0,15,0,0,0,9,1,0,9,12,1,13,10,9,9,9,8,1,0,0,2,0,2,26,28,26,1,1,1,1,1,1,1,14,1,1,1,1,1,1,1,5,6,1060.txt
0,0,0,0,0,0,0,0,0,0,0,0,0,0,0,28,0,30,15,10,0,0,9,1,0,4,14,13,16,21,9,9,9,8,1,0,0,2,0,2,26,28,26,1,1,20,19,10,13,2,14,5,5,5,19,3,3,3,0,0,1064.txt
0,0,0,0,0,0,0,0,0,0,0,0,0,0,0,28,0,30,15,0,0,0,9,1,0,9,12,1,13,10,9,9,9,8,1,0,0,2,0,2,26,28,26,1,1,1,1,1,1,1,14,1,1,1,1,1,1,1,5,6,1069.txt
0,0,0,0,0,0,0,0,0,0,0,0,0,0,0,29,0,0,15,0,0,0,9,1,0,9,12,1,13,10,9,9,9,8,1,0,0,2,0,2,26,28,26,1,1,1,1,1,1,1,11,1,1,1,1,1,1,1,5,6,1071.txt
0,0,0,0,0,0,0,0,0,0,0,0,0,0,0,28,0,30,15,0,0,0,9,1,0,9,12,1,13,10,9,9,9,8,1,0,30,2,29,2,26,28,26,1,1,1,1,1,1,1,14,1,1,1,1,1,1,1,5,6,1073.txt
0,0,0,0,0,21,0,9,0,0,0,0,0,0,0,29,0,0,2,2,0,0,19,15,0,19,9,8,4,5,4,4,4,4,4,0,0,9,0,9,23,9,22,23,4,14,30,25,6,20,2,0,12,14,4,22,10,9,17,16,1075.txt
0,0,0,0,0,0,0,0,0,0,0,0,0,0,0,28,0,30,15,0,0,0,9,1,0,9,12,1,13,10,9,9,9,8,1,0,0,2,0,2,26,28,26,1,1,1,1,1,1,1,14,1,1,1,1,1,1,1,5,6,1076.txt
0,0,0,0,0,0,0,0,0,0,0,0,0,0,0,28,0,30,15,0,0,0,9,1,0,2,2,2,2,2,9,9,9,8,1,0,0,2,0,2,26,28,26,1,1,0,0,0,4,4,14,2,2,2,2,2,2,2,0,0,1078.txt
0,0,0,0,0,0,0,0,0,0,0,0,0,0,0,28,0,30,15,0,0,0,9,1,0,9,12,1,13,10,9,9,9,8,1,0,0,2,0,2,26,28,26,1,1,1,1,1,1,1,14,1,1,1,1,1,1,1,5,6,1080.txt
0,0,0,0,0,0,0,0,0,0,0,0,0,0,0,28,0,0,15,0,0,0,9,1,0,9,12,1,13,10,13,30,30,18,12,0,0,2,0,2,26,28,26,1,1,1,1,1,1,1,2,1,1,1,1,1,1,1,5,6,1082.txt
0,0,0,0,0,0,0,0,0,0,0,0,0,0,0,0,0,0,15,0,0,0,9,1,0,9,12,1,13,10,9,9,9,8,1,0,0,3,0,3,1,1,1,1,1,1,1,1,1,1,2,1,1,1,1,1,1,1,5,6,1084.txt
0,0,0,0,0,0,0,0,0,0,0,0,12,0,0,2,2,2,15,0,0,0,9,1,0,9,12,1,13,10,9,9,9,8,1,0,0,2,0,2,26,28,26,1,1,1,1,1,1,1,14,1,1,1,1,1,1,1,5,6,1086.txt
0,0,0,0,0,21,9,8,0,0,0,0,0,0,0,29,0,0,25,2,0,0,18,0,0,9,12,1,13,10,2,2,2,2,2,0,0,2,0,2,0,0,0,0,0,1,1,1,1,1,2,1,1,1,1,1,1,1,5,6,1088.txt
22,30,11,2,2,1,6,22,2,16,2,5,2,2,1,28,0,30,15,0,4,4,6,1,3,9,12,1,13,10,9,9,9,8,1,14,14,7,18,8,26,28,26,1,1,1,1,1,1,1,14,1,1,1,1,1,1,1,5,6,1090.txt
0,0,0,0,0,0,0,0,0,0,0,0,0,0,0,3,3,3,4,3,0,0,8,28,0,16,4,6,6,8,10,13,14,10,20,0,0,0,0,0,12,4,12,12,10,3,3,3,4,4,9,7,14,16,0,13,24,28,13,13,1093.txt
0,0,0,0,0,0,0,0,0,0,0,0,0,0,0,28,0,30,15,0,0,0,9,1,0,9,12,1,13,10,9,9,9,8,1,0,0,2,0,2,26,28,26,1,1,1,1,1,1,1,14,1,1,1,1,1,1,1,5,6,1094.txt
0,0,0,0,0,0,0,0,0,0,0,0,0,0,0,28,0,30,11,10,0,0,17,21,0,10,25,4,22,18,28,23,26,0,10,0,0,5,0,5,13,11,23,30,25,11,10,10,13,15,8,8,9,10,8,28,8,8,24,13,1096.txt
0,0,0,0,0,0,0,0,0,0,0,0,0,2,1,28,0,30,15,0,0,0,9,1,3,9,12,1,13,10,9,9,9,8,1,1,1,7,1,8,26,28,26,1,1,0,0,0,4,4,14,2,2,2,2,1,1,1,5,6,1101.txt
0,0,0,0,0,0,0,0,0,0,0,0,0,0,0,28,0,30,15,0,0,0,9,1,0,9,12,1,13,10,9,9,9,8,1,0,0,2,0,2,26,28,26,1,1,1,1,1,1,1,14,1,1,1,1,1,1,1,5,6,1105.txt
0,0,0,0,0,0,0,0,0,0,0,0,0,0,0,28,0,0,15,0,0,0,9,1,0,9,12,1,13,10,9,9,9,8,1,0,0,2,0,2,26,28,26,1,1,1,1,1,1,1,14,1,1,1,1,1,1,1,5,6,1106.txt
22,8,16,1,16,8,3,3,10,14,10,28,18,1,28,12,3,18,21,30,11,1,1,1,7,12,6,4,22,19,28,23,26,0,10,23,21,14,12,27,26,28,26,1,1,11,23,20,13,15,30,8,8,12,8,29,7,7,29,28,1108.txt
0,0,0,0,0,0,0,0,0,0,0,0,3,0,0,2,2,2,15,0,0,0,9,1,0,9,12,1,13,10,9,9,9,8,1,0,0,3,0,3,26,28,26,1,1,0,0,0,4,4,14,0,20,21,5,1,1,1,5,6,1109.txt
0,0,0,0,0,0,0,0,0,0,0,0,0,0,0,28,0,30,15,0,0,0,9,1,0,9,12,1,13,10,9,9,9,8,1,0,0,2,0,2,26,28,26,1,1,1,1,1,1,1,14,1,1,1,1,1,1,1,5,6,1114.txt
0,0,0,0,0,0,0,0,0,0,0,0,0,0,0,28,0,30,24,10,0,0,18,18,0,4,14,13,16,21,2,2,23,30,2,0,29,2,30,2,18,30,18,16,24,23,23,15,14,14,14,3,3,3,8,3,3,3,3,17,1117.txt
0,0,0,0,0,0,0,0,0,0,0,0,0,0,0,29,0,30,15,0,0,0,9,1,0,9,12,1,13,10,9,9,9,8,1,0,0,5,0,5,1,1,1,1,1,1,1,1,1,1,0,1,1,1,1,1,1,1,5,6,1118.txt
0,0,0,0,0,0,0,0,0,0,0,0,0,0,0,2,2,2,15,0,0,0,9,1,0,5,17,17,21,23,20,27,30,25,12,0,0,2,0,2,26,28,26,1,1,20,19,29,24,28,14,20,20,21,7,15,22,13,9,24,1121.txt
0,0,0,0,0,0,9,8,0,0,0,0,0,0,0,28,0,30,24,10,0,0,18,4,0,2,2,2,2,2,2,2,23,30,2,0,29,2,30,2,5,6,6,6,6,5,27,6,3,3,14,2,2,2,2,2,2,2,8,17,1122.txt
0,0,0,0,0,0,0,0,0,0,0,0,0,0,0,29,0,0,15,0,0,0,9,1,0,9,12,1,13,10,9,9,9,8,1,0,0,2,0,2,26,28,26,1,1,1,1,1,1,1,14,1,1,1,1,1,1,1,5,6,1124.txt
0,0,0,0,0,0,0,0,0,0,0,0,0,0,0,28,0,0,15,0,0,0,9,1,0,9,12,1,13,10,9,9,9,8,1,0,0,2,0,2,26,28,26,1,1,1,1,1,1,1,2,1,1,1,1,1,1,1,5,6,1126.txt
0,0,0,0,0,0,0,0,0,0,0,0,28,0,8,7,3,7,10,4,22,6,14,28,0,24,25,4,8,24,4,4,4,4,4,5,5,2,6,2,13,10,13,13,10,14,11,25,6,20,2,0,8,12,8,29,7,8,18,29,1128.txt
0,0,0,0,0,0,0,0,0,0,0,0,0,0,0,28,0,30,30,20,0,0,9,1,0,9,10,10,11,11,25,18,20,27,29,0,0,2,0,2,25,26,25,24,30,1,1,1,1,1,14,1,1,1,1,18,12,11,5,30,1130.txt
0,0,0,0,0,0,0,0,0,0,0,0,0,0,0,28,0,30,15,0,0,0,9,1,0,9,12,1,13,10,9,9,9,8,1,0,0,2,0,2,26,28,26,1,1,20,19,10,13,2,14,5,5,5,8,1,1,1,5,6,1135.txt
0,0,0,0,0,0,0,0,0,0,0,0,0,0,0,28,0,30,24,10,0,0,18,1,0,24,6,20,17,18,28,23,26,9,10,0,0,2,0,2,26,28,26,1,1,19,18,3,12,10,8,7,8,12,0,29,7,7,26,29,1136.txt
0,0,0,0,0,0,0,0,0,0,0,0,0,0,0,16,14,18,5,5,0,0,8,1,0,25,6,6,30,8,22,11,12,25,11,0,0,30,0,4,26,28,26,1,1,17,15,8,24,28,8,26,14,16,6,13,24,16,13,29,1137.txt
0,0,0,0,0,0,0,0,0,0,0,0,0,0,0,28,0,30,15,0,0,0,9,1,0,9,12,1,13,10,9,9,9,8,1,0,29,2,30,2,26,28,26,1,1,0,0,0,13,2,14,3,3,3,20,1,1,1,5,6,1139.txt
27,0,0,23,0,0,3,13,24,0,0,0,0,1,28,28,0,30,24,10,0,0,18,12,7,16,14,13,16,21,2,2,23,30,2,23,20,14,16,25,12,4,12,12,29,12,10,15,16,17,14,3,3,3,4,13,24,7,3,17,1141.txt
0,0,0,0,0,0,0,0,0,0,0,0,0,0,0,12,14,18,15,27,0,0,9,1,7,23,6,4,22,20,28,23,26,0,10,28,21,14,16,16,7,7,7,7,7,14,10,25,6,20,17,9,22,12,16,29,7,7,29,21,1143.txt
0,0,0,0,0,0,0,0,0,0,0,0,0,0,0,28,0,0,15,0,0,0,9,1,0,9,12,1,13,10,9,9,9,8,1,0,0,2,0,2,26,28,26,1,1,1,1,1,1,1,14,1,1,1,1,1,1,1,5,6,1147.txt
0,0,0,0,0,0,0,0,0,0,0,0,0,0,0,2,2,2,15,0,0,0,9,1,0,9,12,1,13,10,12,13,14,18,23,0,0,2,0,2,26,28,26,1,1,1,1,1,1,1,2,1,1,1,1,1,1,1,5,1,1149.txt
0,0,0,0,0,0,0,0,0,0,0,0,28,0,0,8,8,8,5,24,0,0,8,1,0,27,21,29,26,30,13,10,16,18,14,0,0,9,0,9,27,1,27,1,1,21,30,25,6,20,8,0,20,21,16,8,18,15,18,13,1151.txt
0,0,0,0,0,0,0,0,0,0,0,0,0,0,0,28,0,30,15,0,0,0,9,1,0,9,12,1,13,10,9,9,9,8,1,0,29,3,30,3,26,28,26,1,1,1,1,1,1,1,14,1,1,1,1,1,1,1,5,6,1152.txt
0,0,0,0,0,0,0,0,0,0,0,0,0,0,0,28,0,30,15,0,0,0,9,1,0,9,12,1,13,10,9,9,9,8,1,0,0,2,0,2,26,28,26,1,1,1,1,1,1,1,14,1,1,1,1,1,1,1,5,6,1156.txt
0,0,0,0,0,0,0,0,0,0,0,0,0,0,0,2,2,2,15,0,5,13,9,1,0,9,12,1,13,10,9,9,9,8,1,10,10,2,2,2,26,28,26,1,1,1,1,1,1,1,24,1,1,1,1,1,1,1,5,6,1158.txt
0,0,0,0,0,0,0,0,0,0,0,0,0,0,0,28,0,30,15,0,0,0,9,1,0,9,12,1,13,10,9,9,9,8,1,0,0,2,0,2,26,28,26,1,1,1,1,1,1,1,14,1,1,1,1,1,1,1,5,6,1161.txt
0,0,0,0,0,0,0,0,0,0,0,0,0,0,0,28,0,30,15,0,0,0,9,1,0,9,12,1,13,10,9,9,9,8,1,0,0,2,0,2,26,28,26,1,1,1,1,1,1,1,14,1,1,1,1,1,1,1,5,6,1166.txt
0,0,0,0,0,0,0,0,0,0,0,0,0,0,0,28,0,30,15,10,0,0,9,1,0,4,6,6,21,8,12,29,30,18,12,0,0,2,0,2,26,28,26,1,1,0,0,0,30,6,14,20,8,12,4,29,7,13,25,29,1168.txt
29,8,8,1,16,8,13,19,29,21,17,12,15,18,14,9,12,9,21,30,11,27,12,25,20,20,23,23,18,30,19,28,30,15,21,26,23,24,22,17,22,11,23,30,25,20,19,10,27,8,14,9,26,28,18,28,20,14,2,2,1169.txt
0,0,0,0,0,0,0,0,0,0,0,0,0,5,4,28,0,30,3,10,0,0,18,4,0,2,2,2,2,2,6,8,6,7,6,6,3,26,30,11,5,6,6,6,6,28,20,15,4,4,1,17,15,7,21,2,2,2,0,0,1171.txt
0,0,0,0,0,0,0,0,0,0,0,0,0,0,0,28,0,0,30,2,0,0,9,1,0,9,10,9,11,9,26,18,21,27,29,0,0,2,0,2,25,26,25,24,30,0,0,0,4,4,14,3,3,3,5,18,12,11,5,7,1175.txt
0,0,0,0,0,0,0,0,0,0,0,0,0,0,0,28,0,30,15,10,0,0,9,1,0,7,6,6,22,8,12,11,13,18,23,0,0,2,0,2,26,28,26,1,1,0,0,0,4,4,14,7,8,12,5,29,7,7,14,13,1177.txt
22,8,11,1,16,0,16,17,11,16,16,5,8,19,7,28,0,30,15,0,16,16,27,1,7,9,12,1,13,10,9,9,9,8,1,20,21,15,18,18,26,28,26,1,1,1,1,1,1,1,3,1,1,1,1,1,1,1,5,6,1179.txt
0,0,0,0,0,0,0,0,0,0,0,0,0,0,0,29,0,0,15,0,0,0,9,0,0,9,12,1,13,10,2,2,23,30,2,0,0,2,0,2,0,0,0,0,0,1,1,1,1,1,2,1,1,1,1,1,1,1,5,6,1183.txt
0,0,0,0,0,0,27,0,0,0,0,0,0,0,0,28,0,30,15,10,0,0,9,1,0,2,2,2,2,2,3,3,3,3,3,0,29,2,30,2,26,28,26,1,1,0,0,0,3,3,14,2,2,2,2,2,2,2,0,0,1184.txt
22,0,0,2,0,0,6,22,2,30,0,0,25,20,23,27,30,30,15,0,0,0,9,13,29,9,12,1,13,10,9,9,9,8,9,0,0,2,0,29,17,17,19,17,15,1,1,1,1,1,14,1,1,1,1,1,1,1,5,6,1190.txt
22,30,11,23,16,1,6,22,13,17,16,19,18,23,1,3,3,3,23,6,14,11,26,1,7,10,6,6,22,8,28,23,26,0,10,1,1,14,1,1,26,28,26,1,1,12,10,25,6,20,14,20,14,16,22,28,24,7,3,29,1192.txt
0,0,0,0,0,0,0,0,0,0,0,0,0,0,0,28,0,30,15,0,0,0,9,1,0,9,12,1,13,10,9,9,9,8,1,0,0,2,0,2,26,28,26,1,1,1,1,1,1,1,14,1,1,1,1,1,1,1,5,6,1194.txt
0,0,0,0,0,0,0,0,0,0,0,0,0,0,0,28,0,30,15,10,0,0,9,4,0,2,2,2,2,2,2,2,23,30,2,0,0,2,0,2,5,6,6,6,6,0,0,0,3,3,6,2,2,2,2,2,2,2,3,29,1196.txt
0,0,0,0,0,0,0,0,0,0,0,0,0,0,0,3,3,3,18,3,0,0,16,4,0,2,2,2,2,2,3,3,3,3,3,0,0,5,0,5,5,6,6,6,6,3,3,5,3,3,6,2,2,2,2,2,2,2,8,29,1197.txt
0,0,0,0,0,0,0,0,0,0,0,0,6,0,0,7,3,7,24,4,0,0,18,0,0,4,14,13,16,21,2,2,23,30,2,0,0,2,0,2,0,0,0,0,0,14,14,25,6,20,2,3,3,3,20,19,19,16,3,17,1199.txt
0,0,0,0,0,0,0,0,0,0,0,0,0,0,0,29,0,0,15,0,0,0,9,21,0,9,12,1,13,10,28,23,26,0,10,0,0,5,0,5,1,1,27,1,1,9,10,10,13,8,8,9,8,9,8,1,1,1,5,6,1201.txt
0,0,0,0,0,0,0,0,0,0,0,0,0,0,0,28,0,30,24,10,0,0,18,1,0,12,5,5,26,7,20,10,16,24,14,0,0,2,0,2,26,28,26,1,1,28,10,25,6,20,8,20,22,12,28,29,7,15,11,11,1203.txt
0,0,0,0,0,0,0,0,0,0,0,0,0,0,0,28,0,0,15,13,0,0,9,0,0,7,14,13,16,21,2,2,23,30,2,0,0,2,0,2,0,0,0,0,0,0,0,0,13,15,2,3,3,3,26,3,3,3,14,17,1205.txt
27,8,24,1,7,12,16,17,13,16,10,5,1,18,7,7,8,29,10,4,13,19,11,0,7,8,12,1,5,4,4,4,4,4,4,28,19,15,18,22,0,0,0,0,0,14,11,25,6,20,2,0,22,12,29,1,1,1,5,6,1207.txt
0,0,0,0,0,0,0,0,0,0,0,0,0,0,0,28,0,0,15,0,0,0,9,1,0,9,12,1,13,10,9,9,9,8,1,0,0,2,0,2,26,28,26,1,1,1,1,1,1,1,14,1,1,1,1,1,1,1,5,1,1211.txt
0,0,0,0,0,0,0,0,0,0,0,0,0,0,0,28,0,0,15,0,0,0,9,1,0,9,12,1,13,10,9,9,9,8,1,0,0,2,0,2,26,28,26,1,1,1,1,1,1,1,14,1,1,1,1,1,1,1,5,6,1214.txt
0,0,0,0,0,0,0,0,0,0,0,0,0,0,0,28,0,0,15,0,0,0,9,1,0,9,12,1,13,10,9,9,9,8,1,0,0,2,0,2,26,28,26,1,1,1,1,1,1,1,2,1,1,1,1,1,1,1,5,6,1216.txt
0,0,0,0,0,0,0,0,0,0,0,0,0,0,0,28,0,30,24,10,0,0,18,16,0,4,18,18,6,17,2,2,23,30,2,0,30,3,29,3,26,28,26,1,1,5,27,6,24,28,8,3,3,3,8,8,0,16,14,29,1217.txt
0,0,0,0,0,0,0,0,0,0,0,0,0,0,0,28,0,30,15,0,0,0,9,1,0,9,12,1,13,10,9,9,9,8,1,0,0,2,0,2,26,28,26,1,1,1,1,1,1,1,2,1,1,1,1,1,1,1,5,6,1219.txt
0,3,0,19,21,3,4,4,18,5,28,21,4,28,3,3,3,3,15,3,23,13,9,2,4,0,6,6,22,8,12,15,17,18,5,10,10,6,11,6,2,2,2,2,2,0,0,0,0,0,9,7,8,12,0,9,7,7,3,29,1221.txt
5,8,16,1,24,20,12,3,12,24,14,20,10,1,28,5,12,5,12,7,16,1,1,28,9,16,24,4,8,18,19,30,30,15,19,21,18,13,21,13,13,11,23,30,10,12,12,20,13,15,24,8,8,12,8,29,7,13,26,29,1225.txt
0,0,0,0,0,0,0,0,0,0,0,0,0,0,0,28,0,0,24,2,0,0,18,0,0,9,12,1,13,10,2,2,23,30,2,0,29,2,30,2,0,0,0,0,0,1,1,1,1,1,2,1,1,1,1,1,1,1,5,6,1228.txt
0,0,0,0,0,0,0,0,0,0,0,0,0,0,0,28,0,30,24,10,0,0,18,1,0,16,6,6,8,8,28,23,26,0,10,0,0,2,0,2,26,28,26,1,1,12,10,23,27,2,14,9,8,12,4,29,7,7,24,29,1230.txt
0,0,0,0,0,0,0,0,0,0,0,0,0,0,0,28,0,30,15,0,0,0,9,1,0,9,12,1,13,10,2,2,23,30,2,0,29,2,30,2,26,28,26,1,1,1,1,1,1,1,2,1,1,1,1,1,1,1,5,6,1234.txt
0,0,0,0,0,0,0,0,0,0,0,0,0,0,0,28,0,30,15,0,0,0,9,1,0,9,12,1,13,10,9,9,9,8,1,0,0,2,0,2,26,28,26,1,1,1,1,1,1,1,14,1,1,1,1,1,1,1,5,6,1237.txt
22,30,11,2,2,1,6,22,2,17,2,19,2,2,1,2,2,2,15,0,4,4,6,1,3,9,12,1,13,10,9,9,9,8,1,1,1,7,1,8,26,28,26,1,1,1,1,1,1,1,14,1,1,1,1,1,1,1,5,1,1239.txt
22,8,28,1,16,8,3,19,13,21,10,30,26,18,27,6,6,6,20,30,14,24,25,24,7,23,5,5,10,7,28,23,26,0,10,28,19,14,19,24,8,8,8,8,8,28,11,25,6,20,3,0,22,12,26,21,7,7,11,11,1241.txt
0,16,0,0,21,12,4,4,18,4,15,21,4,3,3,2,2,2,15,0,23,13,9,2,4,9,12,1,13,10,9,9,9,8,1,10,10,5,10,5,2,2,2,2,2,0,0,0,3,3,0,2,2,2,2,1,1,1,5,6,1243.txt
22,30,11,1,16,1,6,22,12,24,14,17,10,1,1,5,12,5,12,7,16,1,1,1,7,3,6,6,8,8,28,23,26,0,10,13,13,14,16,12,26,28,26,1,1,0,0,0,0,0,8,8,8,12,5,29,7,7,25,29,1245.txt
0,0,0,0,0,0,0,0,0,0,0,0,0,0,0,2,2,2,15,0,0,0,9,1,3,9,12,1,13,10,9,9,9,8,1,1,1,7,1,8,26,28,26,1,1,1,1,1,1,1,14,1,1,1,1,1,1,1,5,6,1249.txt
0,0,0,0,0,0,0,0,0,0,0,0,0,0,0,28,0,30,15,0,0,0,9,1,0,9,12,1,13,10,9,9,9,8,1,0,0,2,0,2,26,28,26,1,1,1,1,1,1,1,2,1,1,1,1,1,1,1,5,6,1251.txt
0,29,1,0,13,19,0,0,0,2,20,28,18,1,28,12,14,18,5,19,14,1,1,1,13,7,6,20,4,5,28,23,26,0,10,14,14,14,27,20,26,28,26,1,1,9,12,29,16,17,27,10,8,12,4,29,7,7,17,16,1254.txt
0,0,13,3,3,30,0,0,30,4,5,23,3,0,0,3,7,3,2,3,2,2,2,11,10,3,4,19,6,6,14,11,16,11,20,4,4,11,21,13,4,30,4,4,24,27,25,6,4,4,7,11,14,16,5,13,6,16,10,13,1255.txt
0,0,0,0,0,12,9,8,6,28,28,21,5,0,3,7,7,7,2,4,6,5,2,12,0,7,5,5,26,7,4,4,4,4,4,10,10,3,2,3,14,16,17,20,29,18,17,4,30,6,20,23,14,16,25,22,24,9,15,20,1267.txt
22,8,1,1,16,20,15,3,4,14,14,17,18,1,28,2,2,2,13,8,1,1,1,1,10,7,6,6,26,8,12,11,16,18,23,14,14,16,24,20,26,28,26,1,1,0,0,0,13,15,14,8,8,12,8,29,7,16,2,2,1271.txt
28,29,1,9,6,28,3,23,4,2,20,30,13,23,19,4,4,4,9,15,1,10,10,11,7,7,5,5,22,7,28,23,26,0,10,4,4,14,16,27,14,4,17,20,11,4,26,4,4,4,12,7,14,16,5,22,24,0,3,3,1274.txt
0,0,0,17,29,21,10,9,26,22,30,22,0,13,15,28,0,30,24,10,0,9,19,28,11,4,14,13,16,21,2,2,23,30,2,9,9,4,8,4,4,4,4,4,10,5,27,19,4,4,8,3,3,3,5,3,3,3,14,17,1276.txt
22,8,11,1,16,20,16,19,12,16,14,5,10,1,28,2,2,2,12,7,16,1,1,1,7,9,12,1,13,10,9,9,9,8,1,18,21,14,27,13,26,28,26,1,1,20,19,2,2,2,3,0,22,12,8,1,1,1,5,6,1278.txt
0,0,0,0,0,0,0,0,0,0,0,0,0,0,0,28,0,30,15,0,0,0,9,1,0,9,12,1,13,10,9,9,9,8,1,0,0,2,0,2,26,28,26,1,1,1,1,1,1,1,14,1,1,1,1,1,1,1,5,6,1280.txt
22,30,11,2,2,1,6,22,2,17,2,19,2,2,1,5,12,5,12,7,4,4,6,1,3,2,2,2,2,2,9,9,9,8,1,1,1,7,1,8,26,28,26,1,1,11,10,2,3,3,3,2,2,2,2,2,2,2,0,0,1283.txt
5,8,24,1,24,18,3,19,13,21,10,30,22,18,20,5,12,5,21,30,14,25,25,21,7,23,4,19,22,24,0,0,0,0,0,18,20,14,16,23,12,10,12,12,29,9,16,25,6,20,12,8,14,16,26,7,24,0,3,8,1285.txt
0,0,0,0,0,0,0,0,0,0,0,0,0,0,0,28,0,30,15,0,0,0,9,1,0,9,12,1,13,10,9,9,9,8,1,0,0,2,0,2,26,28,26,1,1,0,0,0,4,4,14,3,3,3,5,1,1,1,5,6,1287.txt
0,0,0,0,0,21,9,8,0,0,0,0,0,0,0,29,0,0,3,2,0,0,19,16,0,19,14,13,16,21,2,2,23,30,2,0,0,5,0,5,4,23,4,4,16,14,29,17,17,18,17,3,3,3,27,3,3,3,23,20,1288.txt
17,29,1,9,16,20,12,23,24,2,14,17,11,1,28,25,29,28,12,7,14,1,1,21,13,16,6,20,8,18,0,0,0,0,0,14,14,14,16,27,13,13,23,30,26,9,23,2,2,8,12,29,8,12,8,29,7,7,26,8,1290.txt
22,29,11,23,16,27,3,19,29,21,16,30,11,19,7,5,12,5,23,30,11,12,12,1,7,14,6,6,21,8,13,30,30,18,12,20,19,14,16,23,26,28,26,1,1,28,10,25,6,20,16,29,22,12,30,29,7,7,13,29,1292.txt
0,0,0,0,0,0,0,0,0,0,0,0,0,0,0,28,0,30,15,0,0,0,9,1,0,9,12,1,13,10,9,9,9,8,1,0,0,2,0,2,26,28,26,1,1,1,1,1,1,1,14,1,1,1,1,1,1,1,5,6,1295.txt
22,24,1,11,10,10,2,2,1,2,13,2,18,1,28,28,0,30,15,10,1,1,1,1,7,7,6,6,22,8,28,23,26,0,10,13,13,14,16,1,26,28,26,1,1,0,0,0,4,4,14,7,9,10,5,28,8,7,2,2,1297.txt
0,0,0,0,0,0,0,0,0,0,0,0,0,0,0,28,0,30,15,0,0,0,9,1,0,3,6,6,8,8,14,10,16,11,19,0,0,2,0,2,26,28,26,1,1,12,10,25,6,20,8,8,14,12,16,25,24,15,0,0,1300.txt
24,24,1,11,14,20,15,25,16,21,14,17,20,1,28,17,17,10,12,7,25,1,1,4,12,2,2,2,2,2,3,3,3,3,3,4,4,23,24,27,5,6,6,6,6,0,0,0,3,3,3,2,2,2,2,2,2,2,2,2,1302.txt
0,0,0,0,0,0,0,0,0,0,0,0,0,0,0,28,0,0,15,0,0,0,9,1,0,9,12,1,13,10,9,9,9,8,1,0,0,2,0,2,26,28,26,1,1,1,1,1,1,1,14,1,1,1,1,1,1,1,5,6,1303.txt
0,0,0,0,0,0,0,0,0,0,0,0,0,0,0,28,0,30,24,10,0,0,18,1,0,4,6,20,8,18,2,2,23,30,2,0,0,2,0,2,26,28,26,1,1,5,27,19,0,0,8,3,3,3,3,29,7,7,14,29,1305.txt
0,0,0,0,0,0,0,0,0,0,0,0,0,0,0,28,0,30,15,0,0,0,9,1,0,4,14,13,16,21,9,9,9,8,1,0,29,2,30,2,26,28,26,1,1,28,23,17,17,18,14,3,3,3,20,3,3,3,3,17,1307.txt
0,0,0,0,0,0,0,0,0,0,0,0,0,0,0,28,0,30,24,10,0,0,18,28,0,4,14,13,16,21,2,2,23,30,2,0,0,5,0,5,14,4,17,16,10,5,27,5,10,11,8,3,3,3,8,29,8,7,3,17,1309.txt
0,0,0,0,0,0,0,0,0,0,0,0,0,0,0,28,0,30,15,0,0,0,9,1,0,9,12,1,13,10,9,9,9,8,1,0,0,2,0,2,26,28,26,1,1,1,1,1,1,1,14,1,1,1,1,1,1,1,5,6,1311.txt
0,0,0,0,0,0,0,0,0,0,0,0,0,0,0,28,0,0,15,0,0,0,9,1,0,9,12,1,13,10,9,9,9,8,1,0,0,2,0,2,26,28,26,1,1,1,1,1,1,1,14,1,1,1,1,1,1,1,5,6,1314.txt
0,0,0,0,0,0,0,0,0,0,0,0,0,0,0,28,0,0,15,0,0,0,9,1,0,9,12,1,13,10,9,9,9,8,1,0,0,2,0,2,26,28,26,1,1,0,0,0,13,2,14,3,3,3,8,1,1,1,5,6,1315.txt
0,0,0,0,0,0,0,0,0,0,0,0,0,0,0,2,2,2,15,0,0,0,9,1,0,9,12,1,13,10,9,9,9,8,1,0,0,2,0,2,26,28,26,1,1,0,0,0,27,2,14,3,3,3,4,1,1,1,5,6,1317.txt
0,0,0,0,0,0,0,0,0,0,0,0,0,0,0,28,0,30,15,0,0,0,9,1,0,9,12,1,13,10,9,9,9,8,1,0,0,30,0,4,1,1,1,1,1,20,19,2,27,2,0,0,26,28,20,1,1,1,5,6,1318.txt
0,0,0,0,0,0,0,0,0,0,0,0,0,0,0,28,0,0,24,2,0,0,18,1,0,9,12,1,13,10,9,9,9,8,1,0,0,2,0,2,26,28,26,1,1,1,1,1,1,1,2,1,1,1,1,1,1,1,5,6,1320.txt
0,0,0,0,0,0,0,0,0,0,0,0,0,0,0,2,2,2,15,0,0,0,9,1,0,9,12,1,13,10,9,9,9,8,1,0,0,2,0,2,26,28,26,1,1,1,1,1,1,1,14,1,1,1,1,1,1,1,5,6,1323.txt
0,0,0,0,0,0,0,0,0,0,0,0,0,0,0,2,2,2,15,0,0,0,9,1,0,9,12,1,13,10,9,9,9,8,1,0,0,2,0,2,26,28,26,1,1,0,0,0,4,4,14,7,8,12,5,1,1,1,5,6,1325.txt
0,0,0,0,0,0,0,0,0,0,0,0,0,0,0,2,2,2,15,0,0,0,9,1,0,16,5,5,4,5,9,9,9,8,1,0,0,2,0,2,26,28,26,1,1,20,19,10,13,2,14,0,8,12,4,29,7,18,3,13,1327.txt
0,0,0,0,0,0,0,0,0,0,0,0,0,0,0,3,14,3,24,3,0,0,18,12,0,4,5,5,21,7,12,30,30,18,12,0,0,0,0,0,26,28,26,1,1,28,10,23,27,21,12,8,10,11,20,13,9,29,3,29,1329.txt
0,0,0,0,0,0,0,0,0,0,0,0,0,0,0,28,0,30,15,19,0,0,9,1,0,9,12,1,13,10,9,9,9,8,1,0,29,2,30,2,26,28,26,1,1,0,0,0,13,2,14,0,8,12,4,1,1,1,5,6,1331.txt
0,0,0,0,0,0,0,0,0,0,0,0,0,0,0,29,0,0,5,2,22,13,16,21,0,7,25,20,26,6,14,11,16,11,14,29,8,4,2,4,4,11,4,4,16,27,25,5,24,28,17,7,9,9,20,22,8,16,20,20,1332.txt
0,0,0,0,0,0,0,0,0,0,0,0,0,0,0,2,2,2,15,0,0,0,9,1,0,9,12,1,13,10,9,9,9,8,1,0,0,2,0,2,26,28,26,1,1,1,1,1,1,1,14,1,1,1,1,1,1,1,5,6,1335.txt
17,21,16,9,13,10,3,23,4,2,13,17,22,1,28,19,20,21,12,7,1,1,1,12,7,7,4,21,22,18,0,0,0,0,0,21,20,14,16,1,14,4,17,20,29,26,24,5,30,6,20,12,14,16,8,11,6,0,19,20,1337.txt
0,0,0,0,0,0,0,0,0,0,0,0,0,0,0,28,0,0,15,0,0,0,9,1,0,9,12,1,13,10,9,9,9,8,1,0,29,2,30,2,26,28,26,1,1,12,10,2,13,2,14,0,8,12,8,1,1,1,5,6,1339.txt
0,0,0,0,0,0,0,0,0,0,0,0,0,0,0,28,0,30,5,10,0,0,8,1,0,9,12,1,13,10,9,9,9,8,1,0,0,2,0,2,26,28,26,1,1,27,25,19,4,4,8,7,24,24,5,1,1,1,5,6,1341.txt
0,0,0,0,0,0,0,0,0,0,0,0,0,0,0,28,0,0,15,0,0,0,9,1,0,9,12,1,13,10,2,2,23,30,2,0,29,2,30,2,26,28,26,1,1,0,0,0,13,2,14,3,3,3,6,1,1,1,5,6,1344.txt
0,0,0,0,0,0,0,0,0,0,0,0,0,0,0,28,0,30,15,0,0,0,9,1,0,9,12,1,13,10,9,9,9,8,1,0,0,2,0,2,26,28,26,1,1,1,1,1,1,1,14,1,1,1,1,1,1,1,5,6,1346.txt
0,0,0,0,0,0,0,0,0,0,0,0,0,0,0,28,0,30,15,0,0,0,9,1,0,9,12,1,13,10,9,9,9,8,1,0,29,2,30,2,26,28,26,1,1,0,0,0,4,4,14,0,8,12,0,1,1,1,5,6,1348.txt
23,29,24,30,13,18,29,27,16,21,23,10,20,12,13,26,16,14,21,9,19,21,25,25,25,27,22,25,26,26,22,14,15,23,14,12,21,28,22,18,16,13,15,15,18,28,29,12,30,6,29,29,28,17,16,12,21,20,29,19,1351.txt
0,0,0,0,0,0,0,0,0,0,0,0,0,0,0,28,0,30,15,0,0,0,9,1,0,9,12,1,13,10,9,9,9,8,1,0,0,2,0,2,26,28,26,1,1,0,0,0,4,4,14,0,8,12,5,1,1,1,5,6,1352.txt
0,0,0,0,0,0,0,0,0,0,0,0,0,0,0,28,0,0,15,2,0,0,9,0,0,9,12,1,13,10,4,4,4,4,4,0,29,2,30,2,0,0,0,0,0,1,1,1,1,1,2,1,1,1,1,1,1,1,5,6,1354.txt
0,0,0,0,0,0,0,0,0,0,0,0,0,0,0,28,0,0,15,0,22,13,9,1,0,9,12,1,13,10,28,23,26,0,10,29,8,2,2,2,26,28,26,1,1,14,10,2,13,15,2,0,8,12,25,1,1,1,5,6,1356.txt
0,0,0,0,0,0,0,0,0,0,0,0,0,0,0,13,3,24,15,24,0,0,9,1,0,9,12,1,13,10,9,9,9,8,1,0,0,2,0,2,26,28,26,1,1,0,0,0,4,4,9,0,8,12,5,1,1,1,5,6,1358.txt
0,0,0,0,0,0,0,0,0,0,0,0,0,0,0,2,2,2,15,0,0,0,9,1,0,9,12,1,13,10,4,4,4,4,4,0,0,2,0,2,26,28,26,1,1,1,1,1,1,1,2,1,1,1,1,1,1,1,5,6,1360.txt
0,0,0,0,0,0,0,0,0,0,0,0,0,0,0,28,0,30,15,0,0,0,9,4,0,2,2,2,2,2,2,2,23,30,2,0,0,2,0,2,10,4,10,16,10,0,0,0,3,3,14,2,2,2,2,2,2,2,8,17,1362.txt
0,0,0,0,0,0,0,0,0,0,0,0,0,0,0,28,0,0,15,0,0,0,9,1,0,9,12,1,13,10,12,11,16,18,11,0,0,2,0,2,26,28,26,1,1,0,0,0,0,0,14,0,8,12,5,1,1,1,5,6,1364.txt
0,0,0,0,0,0,0,0,0,0,0,0,0,0,0,28,0,30,15,0,0,0,9,1,0,9,12,1,13,10,9,9,9,8,1,0,0,2,0,2,26,28,26,1,1,1,1,1,1,1,14,1,1,1,1,1,1,1,5,6,1367.txt
0,29,16,0,6,21,9,8,0,0,0,0,0,15,7,28,0,30,24,10,0,0,18,12,7,16,14,13,16,21,2,2,23,30,2,23,20,14,16,1,12,4,12,12,29,5,27,7,16,17,10,3,3,3,19,13,24,0,3,17,1368.txt
0,0,0,0,0,0,0,0,0,0,0,0,0,0,0,2,2,2,15,0,0,0,9,1,0,5,5,5,21,7,22,30,30,25,12,0,0,2,0,2,26,28,26,1,1,12,10,10,13,2,14,20,8,12,19,29,7,16,25,29,1371.txt
0,0,0,0,0,0,0,0,0,0,0,0,27,0,0,12,11,24,15,19,0,0,9,1,0,16,6,6,4,5,28,23,26,0,10,0,0,2,0,2,26,28,26,1,1,0,0,0,13,2,12,0,8,12,8,29,7,7,3,13,1372.txt
0,0,0,0,0,0,0,0,0,0,0,0,0,0,0,8,3,8,24,28,0,0,18,21,0,16,14,13,16,21,2,2,23,30,2,0,0,2,0,2,13,23,23,16,12,5,27,5,10,11,4,3,3,3,8,29,8,0,3,17,1375.txt
0,0,0,0,0,0,0,0,0,0,0,0,0,0,0,28,0,30,15,0,0,0,9,1,0,9,12,1,13,10,9,9,9,8,1,0,0,2,0,2,26,28,26,1,1,0,0,0,4,4,14,0,8,12,0,1,1,1,5,1,1377.txt
0,0,0,0,0,0,0,0,0,0,0,0,0,0,0,28,0,30,15,0,0,0,9,1,0,9,12,1,13,10,9,9,9,8,1,0,0,2,0,2,26,28,26,1,1,0,0,0,13,2,14,7,8,12,20,1,1,1,5,6,1379.txt
0,0,3,8,26,26,19,8,25,19,7,4,29,23,29,23,21,20,16,28,30,30,17,18,26,25,4,19,30,6,10,12,18,10,22,23,20,16,20,12,18,30,18,21,24,26,24,5,14,14,7,12,7,8,25,14,24,15,10,29,1380.txt
0,0,0,0,0,0,0,0,0,0,0,0,0,0,0,12,3,17,15,19,0,0,9,11,0,16,24,4,4,5,28,23,26,0,10,0,0,0,0,0,12,11,12,12,12,0,0,0,13,9,12,0,9,10,8,22,8,8,25,29,1383.txt
0,0,0,0,0,0,0,0,0,0,0,0,0,0,0,28,0,30,15,0,0,0,9,1,0,2,2,2,2,2,3,3,3,3,3,0,0,2,0,2,26,28,26,1,1,20,19,20,3,3,14,2,2,2,2,2,2,2,0,0,1389.txt
22,0,0,2,0,0,6,22,2,0,0,0,0,0,0,28,0,30,15,10,0,0,9,1,0,2,2,2,2,2,2,2,23,30,26,0,0,2,0,2,26,28,26,1,1,12,10,15,3,3,6,2,2,2,2,2,2,2,3,17,1390.txt
0,0,0,0,0,0,0,0,0,0,0,0,0,0,0,28,0,30,24,10,0,0,19,1,0,4,5,5,21,7,14,11,16,11,12,0,0,0,0,0,1,1,1,1,1,3,3,6,13,2,8,20,8,12,20,29,7,16,14,29,1392.txt
0,0,0,0,0,0,0,0,0,0,0,0,0,0,0,28,0,30,15,0,0,0,9,1,0,9,12,1,13,10,9,9,9,8,1,0,0,2,0,2,26,28,26,1,1,1,1,1,1,1,14,1,1,1,1,1,1,1,5,6,1395.txt
0,0,0,0,0,0,0,0,0,0,0,0,0,0,0,28,0,0,24,2,0,0,18,0,0,9,12,1,13,10,2,2,23,30,2,0,29,2,30,2,0,0,0,0,0,5,27,19,4,4,2,3,3,3,5,1,1,1,5,6,1396.txt
0,0,0,0,0,0,0,0,0,0,0,0,0,0,8,2,2,2,15,0,22,6,9,1,0,25,6,6,30,8,13,11,16,18,19,5,5,2,6,2,8,8,8,8,8,12,11,25,6,20,8,0,11,12,19,29,7,7,24,13,1398.txt
0,0,0,0,0,0,0,0,0,0,0,0,0,0,0,28,0,30,15,0,0,0,9,1,0,9,12,1,13,10,9,9,9,8,1,0,0,2,0,2,26,28,26,1,1,1,1,1,1,1,14,1,1,1,1,1,1,1,5,6,1400.txt
0,0,0,0,0,0,0,0,0,0,0,0,0,0,0,12,11,24,15,28,23,6,9,1,0,16,6,6,8,8,28,23,26,0,10,5,5,9,6,9,1,1,1,1,1,12,11,30,19,22,15,23,9,9,4,25,8,7,13,29,1402.txt
0,0,0,0,0,0,0,0,0,0,0,0,0,0,0,3,3,3,5,3,0,0,8,4,0,2,2,2,2,2,3,3,3,3,3,0,0,2,0,2,4,4,4,4,29,0,0,0,3,3,14,2,2,2,2,2,2,2,8,29,1405.txt
0,0,0,0,0,0,0,0,0,0,0,0,0,0,0,28,0,0,15,0,0,0,9,1,0,9,12,1,13,10,9,9,9,8,1,0,0,2,0,2,26,28,26,1,1,0,0,0,4,4,14,3,3,3,5,1,1,1,5,6,1407.txt
0,0,0,0,0,0,0,0,0,0,0,0,0,0,0,28,0,30,15,0,0,0,9,1,0,9,12,1,13,10,2,2,23,30,2,0,0,5,0,5,1,1,1,1,1,0,0,0,13,2,0,3,3,3,20,1,1,1,5,6,1409.txt
4,13,24,23,17,18,14,25,20,21,24,28,18,23,20,17,17,25,21,30,15,24,25,21,1,10,24,20,10,20,28,23,26,9,10,23,20,12,27,23,13,11,23,30,12,30,16,11,30,6,30,19,9,10,26,28,8,8,23,21,1412.txt
0,0,0,0,0,0,0,0,0,0,0,0,0,0,0,28,0,30,15,0,0,0,9,1,0,9,12,1,13,10,9,9,9,8,1,0,0,2,0,2,26,28,26,1,1,1,1,1,1,1,14,1,1,1,1,1,1,1,5,6,1416.txt
0,0,0,0,0,0,0,0,0,0,0,0,0,0,0,29,0,0,15,0,0,0,9,1,0,4,14,13,16,21,2,2,23,30,2,0,0,2,0,2,26,28,26,1,1,0,0,0,13,8,14,3,3,3,8,29,7,7,3,17,1418.txt
0,0,0,0,0,0,0,0,0,0,0,0,0,0,0,28,0,30,15,0,0,0,9,1,0,9,12,1,13,10,9,9,9,8,1,0,0,2,0,2,26,28,26,1,1,1,1,1,1,1,14,1,1,1,1,1,1,1,5,6,1421.txt
0,0,0,0,0,0,0,0,0,0,0,0,0,0,0,29,0,0,24,12,0,0,18,1,0,4,14,13,16,21,2,2,23,30,2,0,0,2,0,2,26,28,26,1,1,4,26,5,13,2,12,3,3,3,20,29,7,7,14,17,1422.txt
0,0,0,0,0,0,0,0,0,0,0,0,0,0,0,28,0,30,15,0,0,0,9,1,0,9,12,1,13,10,9,9,9,8,1,0,0,2,0,2,26,28,26,1,1,1,1,1,1,1,14,1,1,1,1,1,1,1,5,6,1425.txt
0,0,0,0,0,0,0,0,0,0,0,0,0,0,0,28,0,30,15,0,0,0,9,1,0,30,14,13,16,21,2,2,23,30,2,0,28,2,29,2,26,28,26,1,1,0,0,0,4,4,14,3,3,3,0,19,0,6,3,17,1427.txt
0,0,0,0,0,0,0,0,0,0,0,0,0,0,0,28,0,30,15,0,0,0,9,1,0,7,14,13,16,21,9,9,9,8,1,0,0,2,0,2,26,28,26,1,1,0,0,0,4,4,14,3,3,3,5,29,7,16,0,0,1429.txt
0,0,0,17,29,0,10,9,26,22,30,22,0,11,15,28,0,30,24,10,0,9,18,12,11,4,22,16,6,26,20,11,16,24,19,9,9,2,8,2,4,4,4,4,29,24,14,15,14,14,8,20,24,24,28,13,13,16,13,29,1431.txt
0,0,0,0,0,0,0,0,0,0,0,0,0,0,0,28,0,30,15,10,0,0,9,1,0,10,6,6,26,8,12,11,16,18,5,0,29,2,30,2,26,28,26,1,1,0,0,0,4,4,14,8,9,10,5,0,8,16,3,13,1433.txt
0,0,0,0,0,0,0,0,0,0,0,0,0,0,0,29,0,0,15,0,0,0,9,1,0,9,12,1,13,10,28,23,26,0,10,0,0,5,0,5,26,28,26,1,1,14,10,25,6,20,25,8,8,9,19,1,1,1,5,6,1434.txt
0,0,0,0,0,0,0,0,0,0,0,0,0,0,0,29,0,0,15,0,0,0,9,1,0,9,12,1,13,10,28,23,26,0,10,0,0,5,0,5,26,28,26,1,1,14,10,25,6,20,25,8,8,9,19,1,1,1,5,6,1436.txt
0,0,0,0,0,21,9,8,0,0,0,0,0,0,0,28,0,0,24,2,0,0,18,0,0,16,5,5,4,5,4,4,4,4,4,0,0,2,0,2,0,0,0,0,0,14,10,25,6,20,2,9,10,11,4,22,9,9,3,3,1439.txt
0,0,0,0,0,0,0,0,0,0,0,0,0,0,0,28,0,0,15,0,0,0,9,1,0,9,12,1,13,10,9,9,9,8,1,0,0,2,0,2,26,28,26,1,1,0,0,0,4,4,14,3,3,3,5,1,1,1,5,6,1441.txt
0,0,0,0,0,0,0,0,0,0,0,0,0,0,0,28,0,30,15,0,0,0,9,1,0,4,14,13,16,21,2,2,23,30,2,0,0,2,0,2,26,28,26,1,1,0,0,0,13,2,14,3,3,3,20,29,7,28,13,17,1442.txt
0,0,0,0,0,0,9,8,0,0,0,0,0,0,0,13,7,11,2,25,0,0,2,11,0,30,9,8,30,17,18,15,29,17,20,0,0,3,0,3,10,4,18,10,29,18,17,19,4,4,4,11,12,14,5,13,10,6,13,3,1444.txt
0,0,0,0,0,0,0,0,0,0,0,0,0,0,0,8,3,8,15,19,5,13,9,1,0,9,12,1,13,10,9,9,9,8,1,10,10,2,10,2,26,28,26,1,1,0,0,0,13,2,24,0,8,9,4,1,1,1,5,6,1446.txt
0,0,0,0,0,0,0,0,0,0,0,0,0,0,0,12,3,18,5,24,0,0,8,1,0,4,6,6,8,8,28,23,26,0,10,0,0,3,0,3,1,1,1,1,1,0,0,0,4,4,12,0,8,12,5,29,7,7,26,29,1448.txt
0,0,0,0,0,0,0,0,0,0,0,0,0,0,0,28,0,30,15,0,0,0,9,1,0,9,12,1,13,10,9,9,9,8,1,0,0,2,0,2,26,28,26,1,1,1,1,1,1,1,14,1,1,1,1,1,1,1,5,6,1451.txt
0,0,0,0,0,0,0,0,0,0,0,0,0,0,0,28,0,30,15,0,0,0,9,1,0,9,12,1,13,10,9,9,9,8,1,0,0,2,0,2,26,28,26,1,1,1,1,1,1,1,14,1,1,1,1,1,1,1,5,6,1453.txt
0,0,0,0,0,0,0,0,0,0,0,0,0,0,0,8,3,8,15,24,0,0,9,1,0,12,6,20,22,18,28,23,26,0,10,0,0,2,0,2,26,28,26,1,1,0,0,0,13,16,11,0,8,12,20,29,7,7,26,8,1454.txt
17,24,1,11,6,20,2,2,1,2,14,17,18,1,28,28,0,30,2,10,1,1,1,4,7,2,2,2,2,2,3,3,3,3,3,4,4,14,16,1,5,6,6,6,6,3,3,5,3,3,6,2,2,2,2,2,2,2,3,3,1456.txt
0,0,0,0,0,0,0,0,0,0,0,0,0,0,0,28,0,0,5,2,0,0,8,1,0,9,12,1,13,10,12,13,14,18,19,0,0,2,0,2,26,28,26,1,1,20,19,23,27,2,14,0,8,12,4,1,1,1,5,6,1458.txt
0,0,0,0,0,0,0,0,0,0,0,0,27,0,0,16,14,24,5,28,0,0,17,1,0,7,17,17,26,17,14,30,29,11,15,0,0,4,0,4,1,29,1,1,1,0,0,0,6,20,27,8,16,29,20,19,16,29,29,19,1460.txt
0,0,0,0,0,0,0,0,0,0,0,0,0,0,0,28,0,30,15,0,0,0,9,1,0,9,12,1,13,10,9,9,9,8,1,0,0,2,0,2,26,28,26,1,1,0,0,0,4,4,14,3,3,3,0,1,1,1,5,6,1462.txt
0,0,0,0,0,0,0,0,0,0,0,0,0,0,0,28,0,30,15,0,0,0,9,1,0,9,12,1,13,10,9,9,9,8,1,0,0,2,0,2,26,28,26,1,1,0,0,0,13,2,14,3,3,3,6,1,1,1,5,6,1465.txt
0,0,0,0,0,0,0,0,0,0,0,0,0,0,0,28,0,0,15,0,0,0,9,1,0,9,12,1,13,10,9,9,9,8,1,0,0,2,0,2,26,28,26,1,1,1,1,1,1,1,14,1,1,1,1,1,1,1,5,6,1467.txt
0,0,0,0,0,0,0,0,0,0,0,0,0,0,0,28,0,0,15,0,0,0,9,1,0,9,12,1,13,10,9,9,9,8,1,0,29,2,30,2,26,28,26,1,1,1,1,1,1,1,14,1,1,1,1,1,1,1,5,6,1469.txt
17,8,1,1,24,28,3,21,24,21,24,29,11,19,20,28,0,30,20,30,26,23,25,21,7,16,24,4,8,20,28,23,26,9,10,14,14,14,13,28,13,11,23,30,13,26,24,5,2,15,12,0,8,12,20,22,7,8,25,29,1470.txt
17,24,1,11,6,20,2,2,1,2,29,2,18,1,28,28,0,30,12,7,1,1,1,11,7,13,4,6,22,8,28,23,26,0,10,4,4,14,16,1,10,30,10,10,24,3,3,6,4,4,14,7,14,16,5,28,24,7,13,8,1473.txt
0,0,0,0,0,0,0,0,0,0,0,0,0,0,0,28,0,30,15,0,0,0,9,1,0,9,12,1,13,10,9,9,9,8,1,0,0,2,0,2,26,28,26,1,1,0,0,0,0,0,14,0,8,12,5,1,1,1,5,6,1475.txt
0,0,0,0,0,0,0,0,0,0,0,0,0,0,0,2,2,2,15,0,0,0,9,1,0,9,12,1,13,10,9,9,9,8,1,0,0,30,0,4,1,1,1,1,1,0,0,0,13,2,20,0,8,9,4,1,1,1,5,6,1477.txt
0,0,0,0,0,0,0,0,0,0,0,0,0,0,0,28,0,30,15,0,0,0,9,1,0,4,14,13,16,21,2,2,23,30,2,0,0,2,0,2,26,28,26,1,1,0,0,0,11,12,12,3,3,3,19,13,24,29,13,17,1480.txt
22,8,11,1,16,10,16,3,4,16,13,5,1,1,28,1,1,1,1,1,25,1,1,1,10,9,12,1,13,10,9,9,9,8,1,13,13,1,5,20,26,28,26,1,1,1,1,1,1,1,14,1,1,1,1,1,1,1,5,6,1482.txt
0,0,0,0,0,0,0,0,0,0,0,0,0,0,0,28,0,30,15,0,0,0,9,1,0,2,2,2,2,2,9,9,9,8,1,0,0,4,0,4,26,28,26,1,1,0,0,0,3,3,14,2,2,2,2,2,2,2,0,0,1484.txt
0,0,0,0,0,0,9,8,0,0,0,0,0,0,0,28,0,30,24,10,0,0,18,12,0,4,14,13,16,3,2,2,23,30,2,0,0,2,0,2,29,15,11,11,29,20,19,15,28,26,14,5,5,5,19,13,19,22,3,17,1487.txt
0,0,0,0,0,0,0,0,0,0,0,0,0,0,0,28,0,0,24,2,0,0,18,16,0,16,14,13,16,21,2,2,23,30,2,0,29,2,30,2,13,23,23,16,12,5,27,19,13,2,2,3,3,3,4,3,3,3,3,17,1490.txt
0,0,0,0,0,0,0,0,0,0,0,0,0,0,0,28,0,0,15,0,0,0,9,1,0,9,12,1,13,10,9,9,9,8,1,0,0,2,0,2,26,28,26,1,1,0,0,0,13,2,14,3,3,3,20,1,1,1,5,6,1491.txt
27,8,24,1,24,28,12,3,24,24,21,30,11,18,7,9,12,9,21,30,28,23,27,27,9,4,5,5,27,7,18,28,30,17,12,26,20,13,21,13,20,20,18,21,27,23,10,25,6,20,16,8,14,16,28,13,24,18,3,11,1494.txt
22,8,11,1,16,10,3,3,13,14,13,17,22,19,27,5,12,5,12,7,26,11,25,1,7,12,6,6,10,8,28,23,26,0,10,20,18,14,16,27,26,28,26,1,1,26,24,5,2,2,27,0,8,12,8,29,7,7,29,28,1497.txt
0,0,0,0,0,0,0,0,0,0,0,0,0,0,0,28,0,30,15,0,0,0,9,1,0,9,12,1,13,10,9,9,9,8,1,0,0,2,0,2,26,28,26,1,1,1,1,1,1,1,14,1,1,1,1,1,1,1,5,6,1499.txt
0,0,0,0,0,0,0,0,0,0,0,0,0,0,0,28,0,30,15,0,0,0,9,0,0,9,12,1,13,10,2,2,23,30,2,0,0,2,0,2,0,0,0,0,0,1,1,1,1,1,2,1,1,1,1,1,1,1,5,6,1502.txt
0,0,0,0,0,0,0,0,0,0,0,0,0,0,0,28,0,30,5,10,0,0,8,28,0,30,4,6,6,8,18,13,14,17,20,0,0,5,0,5,12,10,12,12,10,12,10,15,10,11,12,26,14,16,8,13,24,22,13,29,1504.txt
0,0,0,0,0,0,0,0,0,0,0,0,27,0,0,7,3,7,18,4,22,6,16,21,7,16,4,21,8,18,28,23,26,9,10,23,20,14,12,28,12,4,12,12,13,11,23,15,20,23,12,29,14,16,8,13,24,8,25,8,1505.txt
0,0,0,0,0,0,0,0,0,0,0,0,0,0,0,29,0,0,15,0,22,13,9,1,0,9,12,1,13,10,2,2,23,30,2,10,10,2,2,2,26,28,26,1,1,1,1,1,1,1,2,1,1,1,1,1,1,1,5,6,1507.txt
0,30,11,0,2,0,0,0,0,0,0,0,0,2,1,28,0,30,15,0,0,0,9,1,3,9,12,1,13,10,9,9,9,8,1,1,1,7,1,8,26,28,26,1,1,20,19,2,13,2,14,0,8,12,20,1,1,1,5,6,1509.txt
0,0,0,0,0,0,0,0,14,28,5,23,3,0,0,14,11,24,15,25,0,0,9,1,0,25,6,6,30,8,14,11,16,11,20,0,0,2,0,2,26,28,26,1,1,0,0,0,10,11,14,26,8,12,8,29,7,16,13,29,1511.txt
0,0,0,0,0,0,0,0,0,0,0,0,0,0,0,8,3,8,24,19,0,0,18,12,0,16,4,21,4,5,18,13,14,17,20,0,0,0,0,0,12,4,12,12,29,3,3,5,10,11,12,10,14,16,8,13,24,30,3,13,1513.txt
0,0,0,0,0,0,0,0,0,0,0,0,0,0,0,28,0,30,15,10,0,0,9,1,0,4,14,13,16,21,2,2,23,30,2,0,0,2,0,2,26,28,26,1,1,12,23,2,13,15,12,3,3,3,8,29,7,7,14,17,1515.txt
0,0,0,0,0,0,0,0,0,0,0,0,0,0,0,28,0,30,30,20,0,0,9,1,0,9,10,9,11,9,26,18,21,27,28,0,0,2,0,2,24,26,24,24,30,20,19,23,27,2,14,3,3,3,26,18,12,11,5,7,1518.txt
0,0,0,0,0,0,0,0,0,0,0,0,0,0,0,29,0,0,11,5,0,0,16,21,0,10,4,21,22,18,28,23,26,0,10,0,0,5,0,5,13,11,23,30,12,26,24,5,30,6,24,19,14,16,20,28,24,8,25,29,1519.txt
0,0,0,0,0,0,0,0,0,0,0,0,0,0,0,28,0,30,15,10,0,0,9,1,0,13,6,6,22,8,12,15,29,18,14,0,29,2,30,2,26,28,26,1,1,0,0,0,13,2,27,20,8,12,8,29,7,7,29,22,1521.txt
0,0,0,0,0,0,0,0,0,0,0,0,0,0,0,28,0,30,15,0,0,0,9,1,0,9,12,1,13,10,9,9,9,8,1,0,0,2,0,2,26,28,26,1,1,0,0,0,9,2,14,3,3,3,20,1,1,1,5,6,1523.txt
0,0,0,0,0,0,0,0,0,0,0,0,0,0,0,28,0,30,24,10,0,0,18,1,0,9,12,1,13,10,9,9,9,8,1,0,0,2,0,2,26,28,26,1,1,5,27,19,4,4,8,3,3,3,5,1,1,1,5,6,1526.txt
0,0,0,0,0,12,0,0,6,28,28,21,27,0,3,2,2,2,15,0,6,13,9,1,4,24,6,4,8,19,12,30,30,18,20,29,8,6,10,6,26,28,26,1,1,11,11,2,13,2,24,0,8,12,8,29,7,13,25,12,1528.txt
17,29,24,9,13,10,12,23,29,24,13,15,8,23,7,28,0,30,12,7,16,12,12,12,9,4,30,27,30,26,18,30,30,17,19,27,20,13,21,13,18,4,18,21,29,23,14,15,11,12,3,27,28,29,20,13,19,29,26,13,1529.txt
0,0,0,0,0,0,0,0,0,0,0,0,0,0,0,28,0,30,15,10,0,0,9,4,0,2,2,2,2,2,2,2,23,30,2,0,0,2,0,2,5,6,6,6,6,0,0,0,3,3,14,2,2,2,2,2,2,2,0,0,1532.txt
0,0,0,0,0,0,0,0,0,0,0,0,12,0,0,7,3,7,15,4,22,13,9,1,0,9,12,1,13,10,9,9,9,8,1,29,8,2,9,2,26,28,26,1,1,14,11,20,13,2,8,0,8,12,8,1,1,1,5,6,1534.txt
17,24,1,9,16,10,12,19,12,14,13,17,10,1,28,5,12,5,12,7,16,1,1,21,7,16,25,20,30,19,28,23,26,0,10,14,14,14,16,27,13,11,23,30,26,26,24,5,13,16,4,7,9,12,8,22,8,7,25,29,1536.txt
0,0,0,0,0,0,0,0,0,0,0,0,0,0,0,29,0,30,15,10,0,0,9,1,0,4,6,20,8,18,28,23,26,0,10,0,0,0,0,0,1,1,1,1,1,0,0,0,13,15,8,19,8,9,25,29,7,7,26,8,1538.txt
0,0,0,0,0,0,0,0,0,0,0,0,0,0,0,28,0,0,15,0,0,0,9,1,0,9,12,1,13,10,9,9,9,8,1,0,0,2,0,2,26,28,26,1,1,1,1,1,1,1,14,1,1,1,1,1,1,1,5,6,1540.txt
0,0,0,0,0,0,0,0,0,0,0,0,0,0,0,28,0,30,15,0,0,0,9,1,0,9,12,1,13,10,9,9,9,8,1,0,0,2,0,2,26,28,26,1,1,1,1,1,1,1,14,1,1,1,1,1,1,1,5,6,1543.txt
0,0,0,0,0,0,0,0,0,0,0,0,0,0,0,2,2,2,15,0,0,0,9,1,0,9,12,1,13,10,9,9,9,8,1,0,0,2,0,2,26,28,26,1,1,0,0,0,13,2,8,0,16,29,7,1,1,1,5,6,1545.txt
22,30,1,11,16,1,6,22,1,21,23,9,13,24,1,11,13,25,23,6,1,11,29,1,25,2,2,2,2,2,2,2,23,30,2,4,4,11,24,1,26,28,26,1,1,0,0,0,3,3,1,2,2,2,2,2,2,2,0,0,1546.txt
0,0,0,0,0,0,0,0,0,0,0,0,0,0,0,2,2,2,15,0,0,0,9,1,0,25,18,18,30,17,14,11,16,11,19,0,29,2,30,2,26,28,26,1,1,0,0,0,4,4,8,25,28,30,5,13,0,16,13,29,1548.txt
0,0,0,0,0,30,0,0,14,27,28,18,4,0,0,2,2,2,15,0,22,6,9,1,0,3,6,6,6,8,9,9,9,8,1,5,5,6,9,6,26,28,26,1,1,20,19,10,13,2,14,0,8,12,19,29,7,13,13,13,1551.txt
0,0,0,0,0,0,0,0,0,0,0,0,0,0,0,28,0,30,15,0,0,0,9,1,0,9,12,1,13,10,9,9,9,8,1,0,0,2,0,2,26,28,26,1,1,0,0,0,4,4,14,0,8,12,0,1,1,1,5,6,1552.txt
0,0,0,0,0,0,0,0,0,0,0,0,0,0,0,28,0,0,15,0,0,0,9,1,0,9,12,1,13,10,9,9,9,8,1,0,0,2,0,2,26,28,26,1,1,1,1,1,1,1,14,1,1,1,1,1,1,1,5,6,1556.txt
0,0,0,0,0,0,0,0,0,0,0,0,0,0,0,2,2,2,15,0,0,0,9,1,0,9,12,1,13,10,9,9,9,8,1,0,0,2,0,2,26,28,26,1,1,1,1,1,1,1,2,1,1,1,1,1,1,1,5,1,1558.txt
0,0,0,0,0,21,0,0,0,0,0,0,0,0,0,0,0,30,24,10,0,0,19,11,0,4,14,13,16,21,2,2,23,30,2,0,0,3,0,3,4,23,4,4,29,5,27,19,4,4,8,3,3,3,5,3,3,3,14,4,1561.txt
0,0,0,0,0,0,0,0,0,0,0,0,0,0,0,28,0,30,29,20,0,0,9,1,0,9,10,9,11,9,26,18,21,27,28,0,0,2,0,2,24,26,24,24,30,1,1,1,1,1,14,1,1,1,1,18,12,11,5,7,1563.txt
0,0,0,0,0,0,0,0,0,0,0,0,0,0,0,0,0,0,15,0,0,0,9,1,0,9,12,1,13,10,9,9,9,8,1,0,0,2,0,2,26,28,26,1,1,1,1,1,1,1,2,1,1,1,1,1,1,1,5,6,1565.txt
0,0,0,0,0,0,0,0,0,0,0,0,0,0,0,28,0,30,15,0,0,0,9,1,0,9,12,1,13,10,9,9,9,8,1,0,0,2,0,2,26,28,26,1,1,1,1,1,1,1,14,1,1,1,1,1,1,1,5,6,1567.txt
0,0,0,0,0,0,0,0,0,0,0,0,0,0,0,28,0,30,15,0,0,0,9,1,0,2,2,2,2,2,2,2,23,30,2,0,0,2,0,2,26,28,26,1,1,0,0,0,3,3,14,2,2,2,2,2,2,2,0,0,1570.txt
0,0,0,0,0,0,0,0,0,0,0,0,0,0,0,13,3,18,5,25,0,0,7,11,0,25,7,20,30,18,20,11,16,20,11,0,0,2,0,2,4,4,4,4,11,27,25,5,4,4,8,7,9,10,5,13,8,6,9,13,1572.txt
0,0,0,0,0,0,0,9,0,0,0,0,0,0,0,28,0,0,15,2,0,0,9,1,0,12,6,20,22,18,28,23,26,0,10,0,0,2,0,2,26,28,26,1,1,0,0,0,13,15,4,25,8,12,22,29,7,7,3,29,1574.txt
0,0,0,0,0,0,0,0,0,0,0,0,0,0,0,28,0,30,15,0,0,0,9,1,0,3,6,6,6,8,9,9,9,8,1,0,0,2,0,2,26,28,26,1,1,0,0,0,13,2,8,0,8,12,8,29,7,16,0,0,1581.txt
0,0,0,0,0,0,0,0,0,0,0,0,0,0,0,28,0,0,15,0,0,0,9,1,0,9,12,1,13,10,9,9,9,8,1,0,0,2,0,2,26,28,26,1,1,0,0,0,13,2,14,0,12,14,4,1,1,1,5,1,1583.txt
0,0,0,0,0,0,0,0,0,0,0,0,3,0,0,12,24,19,4,27,0,0,16,12,0,10,4,21,22,18,28,23,26,0,10,0,0,2,0,2,14,4,17,20,29,27,25,19,24,28,20,11,14,16,7,28,24,8,15,20,1585.txt
22,0,0,10,0,0,6,22,1,0,0,0,0,0,0,28,0,30,24,10,0,0,18,1,7,3,6,6,8,8,28,23,26,0,10,1,1,14,1,1,26,28,26,1,1,0,0,0,0,0,8,7,8,12,5,29,7,7,3,29,1587.txt
0,0,0,0,0,0,0,0,0,0,0,0,0,0,0,28,0,30,15,10,0,0,9,28,0,4,14,13,16,21,2,2,23,30,2,0,0,2,0,2,4,4,4,4,10,0,0,0,4,4,8,3,3,3,5,13,14,6,13,17,1589.txt
0,0,0,0,0,0,0,0,0,0,0,0,0,0,0,28,0,0,15,0,0,0,9,1,0,9,12,1,13,10,9,9,9,8,1,0,0,2,0,2,26,28,26,1,1,1,1,1,1,1,14,1,1,1,1,1,1,1,5,1,1590.txt
0,0,0,0,0,0,0,0,0,0,0,0,0,0,0,28,0,30,15,0,0,0,9,1,0,2,2,2,2,2,2,2,23,30,2,0,0,2,0,2,26,28,26,1,1,0,0,0,4,4,14,2,2,2,2,2,2,2,3,17,1594.txt
0,0,0,0,0,0,0,0,0,0,0,0,0,0,0,28,0,0,15,0,0,0,9,1,0,9,12,1,13,10,9,9,9,8,1,0,0,2,0,2,26,28,26,1,1,1,1,1,1,1,14,1,1,1,1,1,1,1,5,6,1596.txt
0,0,0,0,0,0,0,0,0,0,0,0,0,0,0,28,0,30,15,0,0,0,9,1,0,9,12,1,13,10,9,9,9,8,1,0,0,4,0,4,26,28,26,1,1,1,1,1,1,1,14,1,1,1,1,1,1,1,5,6,1598.txt
0,0,0,0,0,0,0,0,0,0,0,0,0,0,0,28,0,30,15,0,0,0,9,1,0,9,12,1,13,10,9,9,9,8,1,0,0,2,0,2,26,28,26,1,1,1,1,1,1,1,14,1,1,1,1,1,1,1,5,6,1600.txt
0,0,0,0,0,0,0,0,0,0,0,0,0,0,0,28,0,30,4,10,0,0,7,11,0,25,4,21,8,18,28,23,26,0,10,0,0,2,0,2,10,4,10,10,11,3,3,19,4,4,8,11,14,16,5,13,24,7,26,13,1602.txt
0,0,0,0,0,0,0,0,0,0,0,0,0,0,0,28,0,30,15,0,0,0,9,1,0,9,12,1,13,10,12,11,16,18,12,0,0,2,0,2,26,28,26,1,1,1,1,1,1,1,2,1,1,1,1,1,1,1,5,6,1604.txt
0,0,0,0,0,0,0,0,0,0,0,0,0,0,0,28,0,30,24,10,0,0,18,28,0,4,14,13,16,21,2,2,23,30,2,0,0,2,0,2,14,4,17,16,10,4,26,5,10,11,12,3,3,3,8,13,8,7,3,17,1605.txt
0,0,0,0,0,0,0,0,0,0,0,0,0,0,0,12,9,19,24,28,0,0,18,16,0,4,25,20,8,18,28,23,26,0,10,0,29,2,30,2,14,4,17,20,29,4,26,5,14,14,14,20,9,12,8,29,8,8,26,29,1608.txt
0,0,0,0,0,0,0,0,0,0,0,0,0,0,0,28,0,30,15,0,0,0,9,1,0,7,14,13,16,21,2,2,23,30,2,0,29,2,30,2,26,28,26,1,1,0,0,0,13,2,14,3,3,3,15,3,3,3,0,0,1610.txt
0,0,0,0,0,0,0,0,0,0,0,0,0,0,0,12,14,24,4,28,0,0,8,11,0,25,4,6,8,8,28,23,26,0,10,0,0,0,0,0,10,4,10,10,11,3,3,19,4,4,8,26,14,16,5,13,24,7,13,29,1612.txt
0,0,0,0,0,0,0,0,0,0,0,0,0,0,0,28,0,0,15,0,0,0,9,1,0,9,12,1,13,10,9,9,9,8,1,0,0,2,0,2,26,28,26,1,1,1,1,1,1,1,14,1,1,1,1,1,1,1,5,6,1615.txt
0,0,0,0,0,0,0,0,0,0,0,0,0,0,0,8,3,8,24,25,0,0,18,1,0,7,6,4,26,18,12,15,29,18,23,0,0,3,0,3,26,28,26,1,1,27,25,19,4,4,9,8,8,9,5,29,7,13,3,29,1616.txt
0,0,0,0,0,0,0,0,0,0,0,0,0,0,0,28,0,30,15,0,0,0,9,1,0,9,12,1,13,10,9,9,9,8,1,0,0,2,0,2,26,28,26,1,1,0,0,0,13,2,14,3,3,3,4,1,1,1,5,6,1618.txt
0,0,0,0,0,0,0,0,0,0,0,0,0,0,0,28,0,30,24,10,0,0,18,21,0,10,25,4,26,18,19,11,16,15,23,0,0,2,0,2,13,11,23,30,13,4,26,5,9,8,8,8,9,10,28,28,8,16,26,13,1622.txt
0,0,0,0,0,0,0,0,0,0,0,0,0,0,0,29,0,0,15,2,0,0,9,1,0,9,12,1,13,10,12,15,29,18,23,0,29,3,30,3,1,1,1,1,1,0,0,0,4,4,4,0,8,9,5,1,1,1,5,6,1623.txt
0,0,0,0,0,0,0,0,0,0,0,0,0,0,0,28,0,0,15,0,0,0,9,1,0,9,12,1,13,10,9,9,9,8,1,0,0,2,0,2,26,28,26,1,1,1,1,1,1,1,2,1,1,1,1,1,1,1,5,6,1626.txt
0,0,0,0,0,0,0,0,0,0,0,0,0,0,0,0,0,30,24,10,0,0,19,11,0,4,14,13,16,21,2,2,23,30,2,0,0,3,0,3,4,4,4,4,11,5,27,3,4,4,8,3,3,3,5,3,3,3,3,4,1629.txt
0,0,0,0,0,0,0,0,0,0,0,0,0,0,0,28,0,30,15,0,0,0,9,1,0,2,2,2,2,2,2,2,23,30,2,0,0,2,0,2,26,28,26,1,1,0,0,0,4,4,14,2,2,2,2,2,2,2,0,0,1631.txt
0,0,0,0,0,0,0,0,0,0,0,0,0,0,0,29,0,0,15,0,0,0,9,1,0,4,14,13,16,21,2,2,23,30,2,0,0,2,0,2,26,28,26,1,1,0,0,0,13,15,10,3,3,3,20,29,7,13,14,17,1632.txt
0,0,0,0,0,0,0,9,0,0,0,0,0,0,0,28,0,30,24,10,0,0,18,7,0,4,14,13,16,21,2,2,23,30,2,0,0,3,0,3,14,4,17,16,9,5,27,19,4,4,10,3,3,3,5,13,8,8,14,17,1637.txt
0,0,0,0,0,0,0,0,0,0,0,0,4,0,0,3,3,3,5,3,0,0,8,11,0,10,4,6,26,8,18,11,16,17,5,0,0,2,0,2,10,4,10,10,29,0,0,0,4,4,8,8,14,16,5,28,24,16,13,23,1639.txt
22,8,11,1,16,10,16,17,16,16,13,5,18,19,7,2,2,2,15,0,27,11,27,13,28,9,12,1,13,10,9,9,9,8,1,14,14,11,15,18,17,17,19,17,15,0,0,0,27,2,14,3,3,3,26,1,1,1,5,6,1641.txt
0,0,0,0,0,0,0,0,0,0,0,0,0,0,0,28,0,30,15,0,0,0,9,1,0,2,2,2,2,2,2,2,23,30,2,0,29,2,30,2,26,28,26,1,1,0,0,0,4,4,14,2,2,2,2,2,2,2,0,0,1643.txt
0,0,0,0,0,0,0,0,0,0,0,0,0,0,0,28,0,30,24,10,0,0,18,11,0,4,14,13,16,21,2,2,23,30,2,0,0,3,0,3,4,23,4,4,25,5,27,19,22,25,12,3,3,3,8,13,8,6,3,17,1645.txt
0,0,0,0,0,0,0,0,0,0,0,0,0,0,0,28,0,30,15,0,0,0,9,4,0,2,2,2,2,2,3,3,3,3,3,0,28,3,29,3,5,6,6,6,6,0,0,0,4,4,0,2,2,2,2,2,2,2,0,0,1647.txt
0,0,0,0,0,0,0,0,0,0,0,0,0,0,0,29,0,0,24,2,0,0,19,21,0,12,14,13,16,21,2,2,23,30,2,0,0,5,0,5,1,1,1,1,1,11,10,29,19,22,27,3,3,3,19,29,7,8,23,20,1650.txt
0,0,0,0,0,0,0,0,0,0,0,0,0,0,0,28,0,30,15,0,0,0,9,1,0,7,6,6,18,8,12,30,30,18,23,0,0,2,0,2,26,28,26,1,1,0,0,0,13,2,4,0,8,12,22,29,7,13,3,13,1652.txt
0,0,0,0,0,0,0,0,0,0,0,0,0,0,0,28,0,30,30,21,0,0,9,1,0,9,10,10,11,11,26,18,21,27,29,0,29,2,30,2,25,26,25,24,30,1,1,1,1,1,14,1,1,1,1,18,12,11,5,30,1654.txt
0,0,0,0,0,0,0,0,0,0,0,0,0,0,0,28,0,30,15,0,0,0,9,1,0,4,14,13,16,21,2,2,23,30,2,0,0,0,0,0,1,1,1,1,1,0,0,0,13,2,8,3,3,3,6,3,3,3,3,17,1655.txt
0,0,0,0,0,0,0,0,0,0,0,0,0,0,0,28,0,30,15,10,0,0,9,1,0,27,14,13,16,21,2,2,23,30,2,0,0,2,0,2,26,28,26,1,1,25,29,25,6,20,8,3,3,3,8,28,19,16,14,17,1657.txt
0,0,0,0,0,0,0,0,0,0,0,0,0,0,0,28,0,30,24,10,0,0,18,1,0,9,12,1,13,10,9,9,9,8,1,0,0,5,0,5,26,28,26,1,1,1,1,1,1,1,8,1,1,1,1,1,1,1,5,6,1660.txt
0,0,0,0,0,0,0,0,0,0,0,0,0,0,0,28,0,30,7,10,0,0,14,28,0,16,24,20,8,18,28,23,26,0,10,0,0,2,0,2,22,10,13,13,10,23,10,24,11,12,12,20,9,10,4,13,8,0,3,29,1662.txt
0,0,0,0,0,0,0,0,0,0,0,0,0,0,0,28,0,30,15,10,0,0,9,1,0,4,14,13,16,21,2,2,23,30,2,0,0,2,0,2,26,28,26,1,1,0,0,0,13,2,8,3,3,3,20,13,8,16,3,17,1663.txt
0,0,0,0,0,0,0,0,0,0,0,0,0,0,0,28,0,30,24,10,0,0,18,1,0,4,6,6,8,8,0,0,0,0,0,0,0,2,0,2,26,28,26,1,1,3,3,5,0,0,12,0,8,12,4,29,7,7,3,29,1666.txt
0,0,0,0,0,0,0,0,0,0,0,0,0,0,0,28,0,30,15,0,0,0,9,1,0,9,12,1,13,10,9,9,9,8,1,0,0,2,0,2,26,28,26,1,1,0,0,0,9,2,14,0,8,12,8,1,1,1,5,6,1667.txt
0,0,0,0,0,0,0,0,0,0,0,0,0,0,0,28,0,30,15,0,0,0,9,1,0,9,12,1,13,10,9,9,9,8,1,0,0,2,0,2,26,28,26,1,1,1,1,1,1,1,14,1,1,1,1,1,1,1,5,6,1669.txt
0,0,0,0,0,0,0,0,0,0,0,0,0,0,0,28,0,0,15,0,0,0,9,1,0,9,12,1,13,10,9,9,9,8,1,0,0,2,0,2,26,28,26,1,1,1,1,1,1,1,2,1,1,1,1,1,1,1,5,6,1671.txt
0,0,0,0,0,0,0,0,0,0,0,0,0,0,0,28,0,30,30,20,0,0,9,1,0,4,14,13,16,21,2,2,23,30,2,0,0,2,0,2,25,26,25,24,30,0,0,0,4,4,14,3,3,3,0,3,3,3,3,17,1673.txt
0,0,0,0,0,0,0,0,0,0,0,0,0,0,0,28,0,30,24,10,0,0,18,1,0,12,14,13,16,21,2,2,23,30,2,0,29,2,30,2,26,28,26,1,1,5,27,5,4,4,8,3,3,3,5,29,7,16,3,17,1676.txt
0,0,0,0,0,0,0,0,0,0,0,0,0,0,0,28,0,30,15,0,0,0,9,1,0,9,12,1,13,10,9,9,9,8,1,0,0,2,0,2,26,28,26,1,1,1,1,1,1,1,14,1,1,1,1,1,1,1,5,6,1677.txt
0,0,0,0,0,0,9,8,0,0,0,0,0,0,0,28,0,30,3,10,0,0,19,11,0,7,4,21,26,18,18,11,16,17,24,0,0,4,0,4,14,4,17,20,29,18,17,19,4,4,20,11,14,16,5,11,24,16,15,20,1680.txt
17,29,1,9,14,10,3,23,13,14,13,20,18,1,28,17,17,21,1,1,1,1,1,12,7,7,4,21,22,20,28,23,26,0,10,4,4,14,16,27,10,4,10,10,29,26,24,5,24,28,27,11,14,16,8,28,24,8,15,22,1682.txt
22,0,0,2,0,0,6,22,2,0,0,0,0,0,0,28,0,30,15,0,0,0,9,1,0,2,2,2,2,2,9,9,9,8,1,0,0,2,0,2,26,28,26,1,1,0,0,0,4,4,14,2,2,2,2,2,2,2,0,0,1684.txt
0,0,0,0,0,0,0,0,0,0,0,0,0,0,0,28,0,30,15,0,0,0,9,1,0,9,12,1,13,10,9,9,9,8,1,0,0,2,0,2,26,28,26,1,1,1,1,1,1,1,14,1,1,1,1,1,1,1,5,6,1686.txt
0,0,0,0,0,0,0,0,0,0,0,0,0,0,0,28,0,0,24,2,0,0,18,0,0,4,14,13,16,21,2,2,23,30,2,0,0,2,0,2,0,0,0,0,0,5,27,5,13,15,2,3,3,3,20,3,3,3,3,17,1692.txt
0,0,0,0,0,0,0,0,0,0,0,0,0,0,0,28,0,30,15,0,0,0,9,1,0,9,12,1,13,10,9,9,9,8,1,0,0,2,0,2,26,28,26,1,1,1,1,1,1,1,14,1,1,1,1,1,1,1,5,6,1694.txt
0,0,0,0,0,0,0,0,0,0,0,0,0,0,0,28,0,0,30,20,0,0,9,1,0,9,10,10,11,11,26,18,21,27,28,0,0,2,0,2,24,26,24,24,30,1,1,1,1,1,14,1,1,1,1,18,12,11,5,30,1696.txt
0,0,0,0,0,0,0,0,0,0,0,0,0,0,0,28,0,30,15,0,0,0,9,1,0,9,12,1,13,10,9,9,9,8,1,0,0,2,0,2,26,28,26,1,1,1,1,1,1,1,14,1,1,1,1,1,1,1,5,6,1698.txt
0,0,0,0,0,0,0,0,0,0,0,0,0,0,0,28,0,30,15,0,0,0,9,1,0,9,12,1,13,10,9,9,9,8,1,0,0,3,0,3,26,28,26,1,1,1,1,1,1,1,8,1,1,1,1,1,1,1,5,6,1699.txt
0,0,0,0,0,0,0,0,0,0,0,0,0,0,0,28,0,30,15,0,0,0,9,1,0,9,12,1,13,10,9,9,9,8,1,0,28,2,29,2,26,28,26,1,1,0,0,0,4,4,14,3,3,3,0,1,1,1,5,6,1701.txt
0,0,0,0,0,0,0,0,0,0,0,0,0,0,0,2,2,2,15,0,0,0,9,1,0,2,2,2,2,2,9,9,9,8,1,0,29,2,30,2,26,28,26,1,1,0,0,0,3,3,14,2,2,2,2,2,2,2,0,0,1705.txt
0,0,0,0,0,0,0,0,0,0,0,0,0,0,0,28,0,30,15,0,0,0,9,1,0,9,12,1,13,10,9,9,9,8,1,0,0,2,0,2,26,28,26,1,1,0,0,0,4,4,14,2,2,2,2,1,1,1,5,6,1707.txt
0,0,0,0,0,0,0,0,0,0,0,0,0,0,0,28,0,0,15,0,0,0,9,1,0,9,12,1,13,10,9,9,9,8,1,0,0,2,0,2,26,28,26,1,1,1,1,1,1,1,2,1,1,1,1,1,1,1,5,6,1709.txt
0,0,0,0,0,0,0,0,0,0,0,0,0,0,0,28,0,30,15,0,0,0,9,1,0,9,12,1,13,10,9,9,9,8,1,0,0,2,0,2,26,28,26,1,1,1,1,1,1,1,8,1,1,1,1,1,1,1,5,6,1715.txt
0,0,0,0,0,25,9,8,0,0,0,0,0,0,0,13,10,19,24,28,0,0,18,12,0,4,14,13,16,21,2,2,23,30,2,0,29,2,30,2,14,4,17,16,29,5,27,19,10,11,10,3,3,3,8,13,24,28,3,17,1717.txt
0,0,0,0,0,0,0,0,0,0,0,0,0,0,0,28,0,0,15,0,0,0,9,1,0,9,12,1,13,10,9,9,9,8,1,0,29,2,30,2,26,28,26,1,1,1,1,1,1,1,14,1,1,1,1,1,1,1,5,6,1720.txt
0,0,0,0,0,0,0,0,0,0,0,0,0,0,0,28,0,0,15,0,0,0,9,1,0,9,12,1,13,10,9,9,9,8,1,0,0,2,0,2,26,28,26,1,1,1,1,1,1,1,2,1,1,1,1,1,1,1,5,6,1723.txt
0,0,0,0,0,0,0,0,0,0,0,0,0,0,0,28,0,30,15,0,0,0,9,1,0,9,12,1,13,10,9,9,9,8,1,0,0,2,0,2,26,28,26,1,1,1,1,1,1,1,14,1,1,1,1,1,1,1,5,6,1725.txt
0,0,0,0,0,0,0,0,0,0,0,0,0,0,0,28,0,30,15,0,0,0,9,1,0,9,12,1,13,10,9,9,9,8,1,0,0,2,0,2,26,28,26,1,1,1,1,1,1,1,14,1,1,1,1,1,1,1,5,6,1727.txt
0,0,0,0,0,0,9,8,0,0,0,0,0,0,0,29,0,30,24,25,0,0,19,21,0,4,14,13,16,21,2,2,23,30,2,0,0,3,0,3,10,4,10,16,29,5,27,19,13,15,10,3,3,3,8,13,24,0,3,17,1728.txt
0,0,0,0,0,0,0,0,0,0,0,0,0,0,0,28,0,30,15,10,0,0,9,1,0,9,12,1,13,10,9,9,9,8,1,0,0,2,0,2,26,28,26,1,1,1,1,1,1,1,2,1,1,1,1,1,1,1,5,6,1732.txt
0,0,0,0,0,0,0,0,0,0,0,0,0,0,0,28,0,0,24,2,0,0,18,28,0,25,7,20,17,18,20,11,16,25,20,0,0,2,0,2,4,11,4,4,10,27,25,19,4,4,8,13,9,13,5,29,8,16,25,29,1734.txt
0,0,0,0,0,21,9,8,0,0,0,0,0,0,0,28,0,30,2,10,0,0,2,3,0,13,4,21,26,18,18,11,13,17,15,0,0,3,0,3,14,4,17,20,29,0,0,0,0,0,27,7,14,16,5,11,24,6,15,20,1735.txt
0,0,0,0,0,0,0,0,0,0,0,0,0,0,0,28,0,30,24,10,0,0,18,4,0,2,2,2,2,2,2,2,23,30,2,0,0,3,0,3,5,6,6,6,6,5,27,3,4,4,14,2,2,2,2,2,2,2,0,0,1737.txt
0,0,0,0,0,30,0,0,14,12,28,18,4,0,0,16,3,24,15,28,22,13,9,1,0,21,17,17,18,23,20,10,16,25,14,10,10,4,10,4,1,29,1,1,1,0,0,0,13,15,8,20,20,21,20,19,16,15,13,29,1739.txt
0,0,0,0,0,0,0,0,0,0,0,0,0,0,0,29,0,30,15,0,0,0,9,1,0,9,12,1,13,10,9,9,9,8,1,0,0,5,0,5,1,1,1,1,1,12,10,2,13,2,25,0,8,9,14,1,1,1,5,6,1744.txt
0,0,0,0,0,0,0,0,0,0,0,0,0,0,0,8,3,8,24,24,0,0,18,1,0,16,6,20,8,18,0,0,0,0,0,0,0,2,0,2,26,28,26,1,1,12,10,10,27,8,12,28,8,12,27,22,7,7,24,29,1745.txt
0,0,0,0,0,0,0,0,0,0,0,0,0,0,0,28,0,30,15,0,0,0,9,1,0,2,2,2,2,2,9,9,9,8,1,0,0,0,0,0,26,28,26,1,1,0,0,0,0,0,14,2,2,2,2,2,2,2,0,0,1747.txt
0,0,0,0,0,0,9,8,0,0,0,0,5,0,0,3,7,3,2,3,0,0,2,3,0,3,4,21,8,18,28,23,26,0,10,0,0,2,0,2,10,4,10,10,29,18,17,6,12,10,8,7,14,16,3,13,6,8,13,3,1749.txt
0,0,0,0,0,12,0,0,6,28,28,11,28,0,0,14,24,19,15,27,5,13,9,21,8,4,24,20,30,24,19,30,30,15,20,29,8,5,10,5,13,11,16,19,29,0,0,0,11,12,12,23,9,10,20,30,8,22,26,29,1751.txt
0,0,0,0,0,0,0,0,0,0,0,0,0,0,0,29,0,0,24,2,0,0,18,1,0,7,14,13,16,21,2,2,23,30,2,0,0,0,0,0,26,28,26,1,1,5,27,19,13,15,11,3,3,3,8,29,7,7,14,17,1755.txt
0,0,0,0,0,0,0,0,0,0,0,0,0,0,0,28,0,0,24,2,0,0,18,1,0,9,12,1,13,10,2,2,23,30,2,0,0,2,0,2,26,28,26,1,1,1,1,1,1,1,2,1,1,1,1,1,1,1,5,6,1759.txt
0,0,0,0,0,0,0,0,0,0,0,0,0,0,0,29,0,30,24,10,0,0,19,1,0,7,14,13,16,21,2,2,23,30,2,0,29,4,30,4,1,29,1,1,1,5,27,19,24,28,0,3,3,3,20,28,24,7,13,4,1762.txt
22,30,11,2,2,1,6,22,2,17,2,19,2,2,1,5,12,5,20,6,4,4,6,1,3,9,12,1,13,10,9,9,9,8,1,1,1,7,1,8,26,28,26,26,1,1,1,1,1,1,3,1,1,1,1,1,1,1,5,6,1764.txt
0,0,0,0,0,0,0,0,0,0,0,0,0,0,0,28,0,30,24,10,0,0,18,3,0,16,14,13,16,21,2,2,23,30,2,0,0,2,0,2,10,4,10,16,11,5,27,3,0,0,9,3,3,3,0,13,24,7,3,17,1765.txt
17,29,16,30,6,28,2,2,1,21,19,29,22,1,28,11,13,28,21,18,1,1,1,25,7,12,5,5,22,7,28,23,26,0,10,21,21,14,16,20,13,11,23,30,26,27,25,19,24,28,27,19,9,12,20,29,8,7,29,22,1769.txt
0,0,0,0,0,12,0,0,14,28,28,18,4,0,0,3,24,3,4,3,0,0,8,4,0,2,2,2,2,2,3,3,3,3,3,0,0,6,0,6,4,4,4,4,29,0,0,0,3,3,14,2,2,2,2,2,2,2,8,24,1771.txt
0,0,0,0,0,0,0,0,0,0,0,0,0,0,0,29,0,0,15,0,0,0,9,1,0,4,14,13,16,21,2,2,23,30,2,0,29,2,30,2,26,28,26,1,1,28,10,20,13,15,25,4,4,4,19,3,3,3,3,17,1774.txt
0,0,0,0,0,0,0,0,0,0,0,0,0,0,0,28,0,30,15,0,0,0,9,1,0,12,6,6,4,5,12,13,14,18,25,0,0,2,0,2,26,28,26,1,1,0,0,0,13,2,14,0,8,12,4,29,7,30,2,2,1775.txt
0,0,0,0,0,0,0,0,0,0,0,0,0,0,0,28,0,0,15,0,0,0,9,1,0,9,12,1,13,10,9,9,9,8,1,0,0,2,0,2,26,28,26,1,1,1,1,1,1,1,14,1,1,1,1,1,1,1,5,6,1778.txt
0,0,0,0,0,0,0,0,0,0,0,0,0,0,0,28,0,30,4,10,0,0,18,4,0,2,2,2,2,2,3,3,3,3,3,0,0,2,0,2,5,6,6,6,6,3,3,6,0,0,6,2,2,2,2,2,2,2,8,13,1780.txt
0,0,0,0,0,0,0,0,0,0,0,0,0,0,0,28,0,0,15,0,0,0,9,1,0,9,12,1,13,10,9,9,9,8,1,0,29,2,30,2,26,28,26,1,1,1,1,1,1,1,14,1,1,1,1,1,1,1,5,6,1783.txt
0,0,0,0,0,0,0,0,0,0,0,0,0,0,0,28,0,30,15,0,0,0,9,1,0,9,12,1,13,10,9,9,9,8,1,0,0,2,0,2,26,28,26,1,1,0,0,0,4,4,4,3,3,3,5,1,1,1,5,6,1784.txt
0,0,0,0,0,0,9,8,0,0,0,0,0,0,0,28,0,30,24,10,0,0,18,12,0,4,14,13,16,3,2,2,23,30,2,0,0,2,0,2,4,4,4,4,18,12,10,25,6,20,8,3,3,3,28,3,3,3,13,17,1787.txt
0,0,0,0,0,21,0,0,0,0,0,0,0,1,28,28,0,30,24,10,0,0,18,21,10,4,14,13,16,21,2,2,23,30,2,13,13,11,20,20,4,4,4,4,29,11,15,17,24,28,8,3,3,3,8,22,0,16,14,17,1789.txt
0,0,0,0,0,0,0,0,0,0,0,0,0,0,0,28,0,30,15,0,0,0,9,1,0,9,12,1,13,10,9,9,9,8,1,0,0,2,0,2,26,28,26,1,1,1,1,1,1,1,14,1,1,1,1,1,1,1,5,6,1791.txt
0,0,0,0,0,0,0,0,0,0,0,0,0,0,0,28,0,30,15,10,0,0,9,1,0,7,6,6,22,8,2,2,23,30,2,0,0,2,0,2,26,28,26,1,1,0,0,0,4,4,8,3,3,3,5,29,7,7,3,29,1794.txt
0,0,0,0,0,0,0,0,0,0,0,0,0,0,0,28,0,30,15,10,0,0,9,11,0,4,14,13,16,21,2,2,23,30,2,0,0,2,0,2,10,4,10,16,29,0,0,0,4,4,8,3,3,3,5,3,3,3,3,17,1798.txt
0,0,0,0,0,0,0,0,0,0,0,0,0,8,6,7,7,7,2,4,0,0,2,0,13,7,24,20,4,5,28,23,26,9,10,18,20,14,13,20,0,0,0,0,0,18,17,5,16,17,2,10,9,10,8,0,8,8,25,8,1800.txt
0,0,0,0,0,0,0,0,0,0,0,0,0,0,0,28,0,30,24,10,0,0,18,4,0,2,2,2,2,2,2,2,23,30,2,0,0,2,0,2,18,4,18,16,10,5,27,3,4,4,6,2,2,2,2,2,2,2,3,17,1801.txt
0,0,0,0,0,0,0,0,0,0,0,0,0,0,0,28,0,30,15,0,0,0,9,1,0,9,12,1,13,10,9,9,9,8,1,0,0,2,0,2,26,28,26,1,1,1,1,1,1,1,14,1,1,1,1,1,1,1,5,6,1803.txt
0,0,0,0,0,0,0,0,0,0,0,0,0,0,0,28,0,30,15,0,0,0,9,1,0,13,6,6,4,5,0,0,0,0,0,0,0,2,0,2,26,28,26,1,1,0,0,0,0,0,14,0,8,12,0,29,7,7,3,29,1805.txt
0,0,0,0,0,0,0,0,0,0,0,0,0,0,0,28,0,0,24,2,0,0,18,0,0,9,12,1,13,10,2,2,23,30,2,0,0,2,0,2,0,0,0,0,0,14,10,2,27,2,2,3,3,3,4,1,1,1,5,6,1808.txt
0,0,0,0,0,0,0,0,0,0,0,0,0,0,0,23,0,30,24,10,0,0,18,4,0,2,2,2,2,2,2,2,23,30,2,0,0,3,0,3,5,6,6,6,6,5,27,3,0,0,6,2,2,2,2,2,2,2,8,17,1810.txt
0,0,0,0,0,0,0,0,0,0,0,0,12,0,0,8,3,8,15,28,5,13,9,1,0,7,6,6,26,8,12,11,16,18,23,10,10,2,11,2,26,28,26,1,1,0,0,0,13,2,8,8,9,12,25,28,8,16,26,29,1812.txt
0,0,0,0,0,0,0,0,0,0,0,0,0,0,0,28,0,30,15,0,0,0,9,1,0,9,12,1,13,10,9,9,9,8,1,0,0,2,0,2,26,28,26,1,1,1,1,1,1,1,14,1,1,1,1,1,1,1,5,6,1814.txt
0,0,0,0,0,21,0,0,0,0,0,0,0,0,0,28,0,0,2,2,0,0,2,0,0,4,17,17,21,17,4,4,4,4,4,0,0,2,0,2,0,0,0,0,0,14,23,23,27,15,2,8,24,24,11,22,13,10,3,3,1816.txt
17,8,27,1,7,28,2,2,1,16,24,5,8,19,7,1,1,1,21,30,15,16,27,0,7,8,12,1,5,4,29,24,7,4,7,23,26,16,12,16,0,0,0,0,0,14,11,2,27,2,2,8,8,12,8,1,1,1,5,6,1818.txt
0,0,0,0,0,0,9,8,0,0,0,0,0,0,0,28,0,30,24,10,0,0,18,11,0,4,14,13,16,3,2,2,23,30,2,0,29,2,30,2,10,4,10,16,29,5,27,5,4,4,8,3,3,3,5,3,3,3,3,17,1820.txt
0,0,0,0,0,0,0,0,0,0,0,0,0,0,0,28,0,30,24,10,0,0,18,28,0,4,4,6,30,8,18,11,16,17,20,0,0,5,0,5,10,4,10,10,10,12,10,8,10,11,8,11,14,16,8,13,24,27,13,13,1824.txt
0,0,0,0,0,0,0,0,0,0,0,0,0,0,0,28,0,30,15,0,0,0,9,1,0,9,12,1,13,10,9,9,9,8,1,0,0,2,0,2,26,28,26,1,1,1,1,1,1,1,14,1,1,1,1,1,1,1,5,6,1825.txt
0,0,0,0,0,0,0,0,0,0,0,0,0,0,0,28,0,30,4,10,0,0,16,3,0,25,4,21,30,18,18,11,16,17,11,0,0,3,0,3,14,4,17,20,11,27,25,19,12,10,8,7,14,16,5,13,24,6,26,29,1827.txt
0,29,16,23,13,0,0,0,0,2,14,17,18,23,20,28,0,30,18,19,26,11,25,12,7,10,4,21,22,18,28,23,26,0,10,23,20,14,16,1,12,4,12,12,29,4,26,5,24,28,12,20,14,16,8,28,24,8,26,8,1830.txt
0,0,0,0,0,0,0,0,0,0,0,0,0,0,0,28,0,30,15,0,0,0,9,1,0,9,12,1,13,10,9,9,9,8,1,0,0,2,0,2,26,28,26,1,1,20,19,10,13,2,14,5,5,5,19,1,1,1,5,6,1831.txt
0,0,0,0,0,0,0,0,0,0,0,0,0,0,0,28,0,0,29,20,0,0,9,1,0,9,10,10,11,11,26,18,21,27,29,0,0,2,0,2,25,26,25,24,30,1,1,1,1,1,14,1,1,1,1,18,12,11,5,30,1833.txt
0,0,0,0,0,12,0,0,14,28,28,21,4,0,0,2,2,2,15,0,0,0,9,1,4,9,12,1,13,10,28,23,26,0,10,0,0,6,0,6,26,28,26,1,1,0,0,0,0,0,14,0,8,12,5,1,1,1,5,6,1836.txt
0,0,0,0,0,0,0,0,0,0,0,0,0,0,0,29,0,0,15,2,0,0,9,1,0,9,12,1,13,10,2,2,23,30,2,0,0,2,0,2,26,28,26,1,1,1,1,1,1,1,2,1,1,1,1,1,1,1,5,6,1838.txt
22,30,11,2,2,1,6,22,2,17,2,19,2,2,1,5,12,5,20,6,4,4,6,1,3,23,3,3,3,21,9,9,9,8,1,1,1,7,1,8,26,28,26,1,1,22,10,25,6,20,22,5,5,5,16,9,7,7,2,2,1840.txt
0,0,0,0,0,0,0,0,0,0,0,0,0,0,0,28,0,30,15,0,0,0,9,1,0,2,2,2,2,2,9,9,9,8,1,0,0,2,0,2,26,28,26,1,1,20,19,23,3,3,14,2,2,2,2,2,2,2,0,0,1842.txt
0,0,0,0,0,0,0,0,0,0,0,0,0,0,0,28,0,0,30,2,0,0,9,1,0,9,10,10,11,11,26,18,21,27,29,0,0,2,0,2,25,26,25,24,30,1,1,1,1,1,2,1,1,1,1,18,12,11,5,30,1844.txt
0,0,0,0,0,0,0,0,0,0,0,0,0,0,0,28,0,0,15,0,6,13,9,1,0,9,12,1,13,10,9,9,9,8,1,29,8,2,6,2,26,28,26,1,1,1,1,1,1,1,14,1,1,1,1,1,1,1,5,6,1847.txt
0,0,0,0,0,0,0,0,0,0,0,0,0,0,0,28,0,30,24,10,0,0,18,1,0,9,12,1,13,10,9,9,9,8,1,0,0,2,0,2,26,28,26,1,1,1,1,1,1,1,14,1,1,1,1,1,1,1,5,6,1850.txt
0,0,0,0,0,21,0,0,0,0,0,0,0,0,0,29,0,0,24,2,0,0,18,1,0,9,11,10,12,11,26,18,21,27,29,0,0,2,0,2,25,26,25,24,30,1,1,1,1,1,2,1,1,1,1,18,12,11,5,30,1851.txt
0,0,0,0,0,0,0,0,0,0,0,0,0,0,0,28,0,30,5,10,0,0,18,1,0,9,12,1,13,10,9,9,9,8,1,0,0,2,0,2,26,28,26,1,1,1,1,1,1,1,14,1,1,1,1,1,1,1,5,6,1854.txt
0,0,0,0,0,0,0,0,0,0,0,0,0,0,0,28,0,30,24,25,0,0,18,28,0,5,5,5,21,7,14,22,16,11,12,0,0,2,0,2,4,12,4,4,10,19,18,3,12,10,8,7,9,10,0,13,8,15,14,13,1855.txt
0,0,0,0,0,0,0,0,0,0,0,0,0,0,0,28,0,30,15,0,0,0,9,1,0,9,12,1,13,10,9,9,9,8,1,0,0,2,0,2,26,28,26,1,1,14,14,23,9,2,2,3,3,3,27,1,1,1,5,6,1858.txt
0,0,0,0,0,0,0,0,0,0,0,0,28,0,0,2,2,2,15,0,0,0,9,1,0,9,12,1,13,10,9,9,9,8,1,0,0,5,0,5,1,1,27,1,1,1,1,1,1,1,8,1,1,1,1,1,1,1,5,6,1860.txt
0,0,0,0,0,0,0,0,0,0,0,0,0,0,0,28,0,30,15,0,0,0,9,1,3,2,2,2,2,2,9,9,9,8,1,1,1,7,1,8,26,28,26,1,1,0,0,0,0,0,14,2,2,2,2,2,2,2,0,0,1861.txt
0,24,1,0,6,0,0,0,0,0,0,0,0,1,2,28,0,30,24,10,0,0,18,4,7,2,2,2,2,2,2,2,23,30,2,4,4,14,16,1,10,4,10,16,11,5,27,6,12,10,6,2,2,2,2,2,2,2,3,17,1863.txt
0,0,0,0,0,0,0,0,0,0,0,0,0,0,0,29,0,0,15,0,0,0,9,1,0,4,14,13,16,21,2,2,23,30,2,0,0,2,0,2,26,28,26,1,1,0,0,0,4,4,14,3,3,3,5,3,3,3,3,17,1865.txt
0,0,0,0,0,0,0,0,0,0,0,0,0,0,0,28,0,0,15,0,0,0,9,1,0,9,12,1,13,10,9,9,9,8,1,0,0,2,0,2,26,28,26,1,1,1,1,1,1,1,2,1,1,1,1,1,1,1,5,6,1867.txt
22,0,0,2,0,0,6,22,2,0,0,0,0,0,0,28,0,30,15,0,0,0,9,1,0,9,12,1,13,10,9,9,9,8,1,0,29,2,30,2,26,28,26,1,1,1,1,1,1,1,14,1,1,1,1,1,1,1,5,6,1870.txt
0,0,0,0,0,0,0,0,0,0,0,0,0,0,0,28,0,30,15,0,0,0,9,1,0,9,12,1,13,10,9,9,9,8,1,0,0,2,0,2,26,28,26,1,1,20,19,2,13,2,14,0,8,12,7,1,1,1,5,6,1872.txt
17,29,1,11,6,20,2,2,1,2,14,17,19,24,10,4,4,21,1,1,1,11,25,18,10,7,4,21,26,6,2,2,23,30,2,4,4,11,15,1,4,4,4,4,11,5,27,19,24,28,8,3,3,3,25,22,24,9,13,13,1874.txt
0,0,0,0,0,0,0,0,0,0,0,0,0,0,0,28,0,30,15,0,0,0,9,1,0,9,12,1,13,10,9,9,9,8,1,0,0,2,0,2,26,28,26,1,1,20,19,23,3,3,14,2,2,2,2,1,1,1,5,6,1876.txt
0,0,0,0,0,0,0,0,0,0,0,0,0,0,0,28,0,0,15,0,0,0,9,1,0,9,12,1,13,10,9,9,9,8,1,0,0,2,0,2,26,28,26,1,1,20,19,20,13,8,14,5,5,5,8,1,1,1,5,6,1879.txt
0,0,0,0,0,0,0,0,0,0,0,0,0,0,0,7,8,7,24,4,0,0,18,1,0,5,5,5,21,7,12,30,29,18,12,0,0,0,0,0,26,28,26,1,1,19,18,3,4,4,2,0,8,9,5,29,7,13,26,12,1880.txt
0,0,0,0,0,0,0,0,0,0,0,0,0,0,0,28,0,30,24,10,0,0,18,3,0,4,14,13,16,21,2,2,23,30,2,0,0,3,0,3,10,4,10,16,11,5,27,3,12,10,8,3,3,3,0,13,24,7,3,17,1884.txt
0,0,0,0,0,0,0,0,0,0,0,0,0,0,0,28,0,0,15,0,0,0,9,1,0,9,12,1,13,10,28,23,26,0,10,0,0,2,0,2,26,28,26,1,1,14,10,25,6,20,2,0,8,12,28,1,1,1,5,6,1885.txt
0,0,0,0,0,0,0,0,0,0,0,0,0,0,0,28,0,0,15,0,0,0,9,1,0,9,12,1,13,10,9,9,9,8,1,0,0,2,0,2,26,28,26,1,1,1,1,1,1,1,2,1,1,1,1,1,1,1,5,6,1887.txt
0,0,13,4,25,0,0,0,9,8,6,7,0,0,0,29,0,0,30,2,8,8,9,1,14,27,14,13,16,21,2,2,23,30,2,0,0,9,17,9,24,27,24,25,30,24,29,17,17,18,7,5,5,5,16,3,3,3,3,17,1890.txt
0,0,0,0,0,0,0,0,0,0,0,0,0,0,0,28,0,30,15,0,0,0,9,1,0,9,12,1,13,10,9,9,9,8,1,0,0,2,0,2,26,28,26,1,1,1,1,1,1,1,14,1,1,1,1,1,1,1,5,6,1892.txt
0,0,0,0,0,0,0,0,0,0,0,0,0,0,0,28,0,30,15,0,0,0,9,1,0,9,12,1,13,10,9,9,9,8,1,0,0,2,0,2,26,28,26,1,1,1,1,1,1,1,14,1,1,1,1,1,1,1,5,6,1894.txt
0,0,0,0,0,0,0,0,0,0,0,0,0,0,0,12,11,24,5,27,0,0,8,1,0,25,6,6,8,8,28,23,26,0,10,0,0,5,0,5,27,29,27,1,1,25,10,23,9,8,0,0,8,12,8,29,7,7,26,13,1898.txt
29,29,16,23,13,28,3,27,22,14,21,28,22,1,28,26,26,25,21,30,20,1,1,18,7,20,23,28,22,30,28,23,26,0,10,18,20,14,16,21,10,30,10,10,18,9,22,11,5,6,29,20,20,21,8,28,16,7,29,26,1900.txt
0,0,0,0,0,0,0,0,0,0,0,0,0,0,0,28,0,30,15,0,0,0,9,1,0,9,12,1,13,10,9,9,9,8,1,0,0,2,0,2,26,28,26,1,1,1,1,1,1,1,14,1,1,1,1,1,1,1,5,6,1901.txt
0,0,0,0,0,0,0,0,0,0,0,0,0,0,0,28,0,30,15,0,0,0,9,1,0,9,12,1,13,10,9,9,9,8,1,0,29,2,30,2,26,28,26,1,1,20,19,20,13,2,14,3,3,3,19,1,1,1,5,6,1903.txt
0,0,0,0,0,0,0,0,0,0,0,0,0,0,0,28,0,30,15,0,0,0,9,1,0,4,6,6,6,8,12,11,16,18,20,0,0,5,0,5,1,29,1,1,1,20,19,15,11,12,0,26,8,12,20,29,7,16,13,13,1906.txt
0,0,0,0,0,0,0,0,0,0,0,0,0,0,0,28,0,30,15,0,0,0,9,1,0,2,2,2,2,2,9,9,9,8,1,0,0,2,0,2,26,28,26,1,1,0,0,0,3,3,14,2,2,2,2,2,2,2,0,0,1908.txt
0,0,0,0,0,0,0,0,0,0,0,0,0,0,0,28,0,30,24,10,0,0,18,1,0,4,14,13,16,21,2,2,23,30,2,0,0,2,0,2,26,28,26,1,1,0,0,0,4,4,10,3,3,3,5,0,8,13,3,17,1911.txt
27,8,24,1,24,8,3,3,29,29,12,10,15,18,13,6,6,6,14,9,11,27,12,17,7,23,5,5,10,7,28,23,26,9,10,28,24,14,19,22,23,22,22,23,22,9,10,25,6,20,16,9,14,16,16,12,24,8,11,8,1913.txt
0,0,0,0,0,0,0,0,0,0,0,0,0,0,0,28,0,30,15,10,0,0,9,1,0,4,14,13,16,21,2,2,23,30,2,0,0,2,0,2,26,28,26,1,1,22,14,15,11,12,8,3,3,3,20,3,3,3,13,17,1914.txt
22,30,11,2,2,1,6,22,2,17,2,19,2,2,1,5,12,5,12,7,4,4,6,1,3,9,12,1,13,10,9,9,9,8,1,1,1,7,1,8,26,28,26,1,1,1,1,1,1,1,22,1,1,1,1,1,1,1,5,6,1916.txt
22,30,11,2,2,1,6,22,2,17,2,19,2,2,1,5,12,5,1,1,4,4,6,1,3,2,2,2,2,2,3,3,3,3,3,1,1,7,1,8,26,28,26,1,1,0,0,0,0,0,14,2,2,2,2,2,2,2,0,0,1919.txt
22,30,11,2,2,1,6,22,2,17,2,19,2,2,1,28,0,30,12,7,4,4,6,1,3,9,12,1,13,10,9,9,9,8,1,1,1,7,1,8,26,28,26,1,1,0,0,0,4,4,14,3,3,3,5,1,1,1,5,6,1921.txt
0,0,0,0,0,0,0,0,0,0,0,0,0,0,0,28,0,30,15,0,22,6,9,1,0,9,12,1,13,10,9,9,9,8,1,5,5,2,9,2,26,28,26,1,1,1,1,1,1,1,14,1,1,1,1,1,1,1,5,6,1923.txt
0,0,0,0,0,0,0,0,0,0,0,0,0,0,0,16,3,18,5,5,0,0,16,1,0,25,6,20,8,18,12,11,16,18,20,0,0,5,0,5,1,1,1,1,1,26,24,5,13,15,8,20,8,9,20,29,7,16,25,29,1926.txt
0,0,0,0,0,0,0,0,0,0,0,0,0,0,0,28,0,30,24,10,0,0,18,1,0,4,14,13,16,21,9,9,9,8,1,0,0,2,0,2,26,28,26,1,1,12,15,2,27,2,14,3,3,3,20,3,3,3,3,17,1928.txt
0,0,0,0,0,0,0,0,0,0,0,0,0,0,0,28,0,0,15,0,0,0,9,1,0,9,12,1,13,10,9,9,9,8,1,0,0,2,0,2,26,28,26,1,1,1,1,1,1,1,2,1,1,1,1,1,1,1,5,6,1930.txt
0,0,0,0,0,0,0,0,0,0,0,0,0,0,0,2,2,2,15,0,0,0,9,1,0,2,2,2,2,2,3,3,3,3,3,0,0,2,0,2,26,28,26,1,1,20,19,2,3,3,14,2,2,2,2,2,2,2,0,0,1932.txt
0,0,0,0,0,0,0,0,0,0,0,0,0,0,0,29,0,0,24,2,0,0,18,1,0,9,12,1,13,10,2,2,23,30,2,0,0,3,0,3,26,28,26,1,1,0,0,0,9,8,11,3,3,3,8,1,1,1,5,6,1934.txt
0,0,0,0,0,0,0,0,0,0,0,0,0,0,0,28,0,30,24,10,0,0,18,1,0,7,14,13,16,21,2,2,23,30,2,0,0,2,0,2,26,28,26,1,1,0,0,0,13,2,8,3,3,3,20,8,0,16,14,17,1937.txt
0,0,0,0,0,0,0,0,0,0,0,0,0,0,0,28,0,0,15,2,0,0,9,1,0,9,12,1,13,10,9,9,9,8,1,0,0,2,0,2,26,28,26,1,1,1,1,1,1,1,2,1,1,1,1,1,1,1,5,6,1938.txt
0,0,0,0,0,0,0,0,0,0,0,0,0,0,0,29,0,30,24,10,0,0,19,16,0,4,14,13,16,21,2,2,23,30,2,0,29,5,30,5,4,23,4,4,25,28,15,15,24,28,8,3,3,3,8,13,19,16,14,17,1941.txt
0,0,0,0,0,0,0,0,0,0,0,0,0,0,0,28,0,30,15,0,0,0,9,1,0,2,2,2,2,2,9,9,9,8,1,0,0,2,0,2,26,28,26,1,1,0,0,0,3,3,14,2,2,2,2,2,2,2,0,0,1942.txt
0,0,0,0,0,0,0,0,0,0,0,0,0,0,0,28,0,0,15,0,0,0,9,1,0,9,12,1,13,10,9,9,9,8,1,0,0,2,0,2,26,28,26,1,1,1,1,1,1,1,14,1,1,1,1,1,1,1,5,6,1944.txt
0,0,0,0,0,0,0,0,0,0,0,0,0,0,0,28,0,30,24,10,0,0,18,4,0,2,2,2,2,2,3,3,3,3,3,0,0,2,0,2,5,6,6,6,6,12,10,12,15,13,6,17,15,7,21,2,2,2,0,0,1947.txt
