0,1,2,3,4,5,6,7,8,9,10,11,12,13,14,15,16,17,18,19,20,21,22,23,24,25,26,27,28,29,30,31,32,33,34,35,36,37,38,39,40,41,42,43,44,45,46,47,48,49,50,51,52,53,54,55,filename
0,19,17,23,23,30,19,26,20,20,17,21,26,9,26,9,25,5,5,13,26,26,27,26,27,23,26,24,24,25,6,9,9,11,9,9,9,9,9,9,29,9,29,8,9,9,9,9,9,9,9,9,9,9,9,8,2.txt
0,19,16,19,19,25,27,22,14,14,14,15,26,10,16,26,22,29,24,28,24,24,20,21,23,18,19,18,19,21,26,28,28,4,29,29,29,29,29,28,24,1,24,9,28,30,29,29,30,28,28,30,27,29,29,9,5.txt
0,19,17,23,23,30,19,26,20,20,17,21,26,6,11,30,25,29,11,28,26,26,27,26,27,8,26,24,24,25,10,9,9,5,9,9,9,9,9,9,29,9,29,28,9,9,9,9,9,9,9,9,9,9,9,27,9.txt
0,23,28,19,19,25,27,22,24,23,14,24,23,10,26,25,22,7,22,13,24,24,20,21,23,18,19,18,19,21,26,28,28,25,29,29,29,29,29,28,24,29,24,10,28,30,29,29,30,28,28,30,27,29,29,29,12.txt
0,19,16,19,19,28,18,25,24,23,17,24,9,6,5,30,9,7,8,13,6,6,6,6,6,6,6,6,6,6,8,8,8,10,8,8,8,8,8,8,7,8,7,28,8,8,8,8,8,8,30,27,27,27,26,27,14.txt
0,19,16,19,19,28,18,25,20,20,17,21,26,10,26,25,9,7,8,13,24,24,25,25,25,18,19,18,19,21,26,28,28,28,29,29,29,29,29,28,24,20,24,10,28,30,29,29,30,28,30,27,27,27,26,29,16.txt
0,19,16,19,19,25,27,22,24,23,14,19,22,10,29,27,22,7,8,28,24,24,25,25,25,18,19,18,19,21,26,28,28,25,29,29,29,29,29,28,24,29,24,10,28,30,29,29,30,28,28,30,27,29,29,9,17.txt
0,19,16,19,19,28,18,25,20,20,17,21,26,10,5,25,9,7,8,13,24,24,25,25,25,18,19,18,19,21,26,28,28,24,29,29,29,29,29,28,24,29,24,28,28,30,29,29,30,28,28,30,27,29,29,27,21.txt
0,19,16,19,19,25,27,22,20,20,28,26,26,10,26,25,22,7,8,13,24,24,20,21,23,18,19,18,19,21,26,28,28,24,29,29,29,29,29,28,24,29,24,28,28,30,29,29,30,28,28,30,27,29,29,27,23.txt
0,19,16,19,19,25,27,27,29,29,14,26,26,10,5,25,22,7,8,13,24,24,25,25,25,18,19,18,19,21,26,28,28,24,29,29,29,29,29,28,24,29,24,10,28,30,29,29,30,28,28,30,27,29,29,9,24.txt
0,11,16,3,2,7,9,2,2,2,4,27,1,1,5,1,1,1,1,1,16,16,16,16,2,1,1,1,1,1,1,1,1,17,1,1,1,1,1,1,26,29,26,27,29,1,30,30,1,29,1,1,1,1,1,1,26.txt
0,23,28,19,19,25,27,22,14,14,14,15,26,29,26,30,22,29,11,28,24,24,20,21,23,18,19,18,19,21,26,28,28,25,29,29,29,29,29,28,24,29,24,28,28,30,29,29,30,28,28,30,27,29,29,27,28.txt
0,0,16,10,9,28,18,25,20,20,17,21,26,12,5,10,9,7,8,13,6,6,6,6,6,6,6,6,6,6,8,8,8,10,8,8,8,8,8,8,7,8,7,6,8,5,8,8,8,8,30,27,27,27,26,21,30.txt
29,27,21,28,28,11,13,7,6,4,3,3,3,3,14,8,7,3,26,22,4,4,4,4,30,2,2,2,2,27,4,4,4,4,7,15,7,15,7,4,26,16,26,27,11,6,7,7,3,4,7,7,3,7,4,4,32.txt
0,19,16,19,19,28,18,25,20,20,17,21,26,10,26,25,9,7,8,13,24,24,25,25,25,18,19,18,19,21,26,28,28,24,29,29,29,29,29,28,24,29,24,10,28,30,29,29,30,28,30,27,27,27,26,8,34.txt
0,19,17,23,23,30,19,26,14,14,14,15,26,9,26,9,25,5,5,28,26,26,27,26,27,23,26,24,24,25,6,9,9,5,9,9,9,9,9,9,29,9,29,10,9,9,9,9,9,9,9,9,9,9,9,9,36.txt
0,19,16,19,19,28,18,25,20,20,17,21,26,10,5,25,9,7,8,13,24,24,25,25,25,18,19,18,19,21,26,28,28,24,29,29,29,29,29,28,24,29,24,28,28,30,29,29,30,28,30,27,27,27,26,27,40.txt
0,0,16,10,9,28,18,25,20,20,17,21,26,10,9,25,9,7,8,13,12,12,13,13,14,13,14,13,13,10,11,17,17,24,17,17,17,17,17,18,16,27,18,9,23,22,22,28,24,23,30,27,27,27,26,9,41.txt
0,19,16,19,19,28,18,30,20,20,17,7,26,6,28,7,8,7,8,13,24,24,25,25,25,18,19,18,19,14,18,28,28,17,29,29,29,29,29,28,24,29,24,28,28,30,29,29,30,28,30,27,27,27,26,27,49.txt
0,19,16,19,19,28,18,25,20,20,17,21,26,10,26,25,9,7,8,13,24,24,25,25,25,18,19,18,19,21,26,28,28,24,29,29,29,29,29,28,24,29,24,28,28,30,29,29,30,28,30,27,27,27,26,27,53.txt
0,19,16,19,19,28,18,25,20,20,17,21,26,6,5,30,9,7,8,13,6,6,6,6,6,6,6,6,6,6,8,8,8,10,8,8,8,8,8,8,7,8,7,28,8,8,8,8,8,8,30,27,27,27,26,27,55.txt
0,19,16,19,19,28,18,25,20,20,17,21,26,10,26,10,9,7,8,13,6,6,6,6,6,6,6,6,6,6,8,8,8,10,8,8,8,8,8,8,7,8,7,28,8,8,8,8,8,8,30,27,27,27,26,27,57.txt
0,19,16,19,19,28,18,25,7,7,16,5,6,10,5,10,9,7,8,13,6,6,6,6,6,6,6,6,6,6,8,8,8,10,8,8,8,8,8,8,7,8,7,28,8,8,8,8,8,8,25,27,27,27,26,27,60.txt
0,19,16,19,19,28,18,25,20,20,17,21,26,10,26,10,9,7,8,13,6,6,6,6,6,6,6,6,6,6,8,8,8,10,8,8,8,8,8,8,7,8,7,28,8,8,8,8,8,8,30,27,27,27,26,27,61.txt
0,19,16,19,19,28,18,25,24,23,14,24,9,6,26,30,9,7,8,28,24,24,25,25,25,18,19,18,19,21,26,28,28,24,29,29,29,29,29,28,24,29,24,28,28,30,29,29,30,28,30,27,27,27,26,27,63.txt
0,12,16,4,2,11,13,2,2,2,4,4,4,4,26,4,4,4,3,4,16,16,16,16,2,3,4,3,3,3,4,4,4,24,3,3,3,3,3,4,26,29,26,27,3,3,3,3,7,4,3,3,7,3,4,4,65.txt
0,12,16,4,25,11,13,28,26,27,4,2,2,2,4,2,2,2,2,2,16,16,28,29,28,2,2,2,2,27,2,2,2,4,2,2,2,2,2,2,26,4,26,27,2,2,2,2,2,2,2,2,2,2,2,2,68.txt
0,19,17,23,23,30,19,26,24,23,14,19,9,29,26,20,25,5,5,30,26,26,27,26,27,23,26,24,24,25,6,9,9,5,9,9,9,9,9,9,29,9,29,28,9,9,9,9,9,9,9,9,9,9,9,27,71.txt
15,22,16,19,19,25,27,22,24,23,14,19,9,10,24,26,9,30,11,28,24,24,25,25,25,18,19,18,19,21,26,28,28,28,29,29,29,29,29,28,24,30,24,28,28,30,29,29,30,28,30,27,27,27,26,27,72.txt
29,29,19,29,12,28,18,25,20,20,27,21,26,20,28,19,20,22,21,26,23,23,24,24,24,22,25,25,25,26,28,27,27,23,28,28,28,28,28,27,28,28,28,28,30,29,28,24,29,27,30,27,27,27,26,26,76.txt
0,19,16,19,19,28,18,25,20,20,17,26,26,10,26,25,9,7,8,13,23,23,25,25,25,18,19,18,19,21,26,28,28,24,29,29,29,29,29,28,24,29,24,28,28,30,29,24,30,28,30,27,27,27,26,27,78.txt
0,19,16,19,19,25,27,22,29,29,17,26,26,10,26,25,9,7,8,13,24,24,25,25,25,18,19,18,19,21,26,28,28,24,29,29,29,29,29,28,24,29,24,9,28,30,29,29,30,28,28,30,27,29,29,29,81.txt
0,0,16,19,19,28,18,25,20,20,17,21,26,6,5,30,9,7,8,13,6,6,6,6,6,6,6,6,6,6,8,8,8,10,8,8,8,8,8,8,7,8,7,28,8,8,8,8,8,8,30,27,27,27,26,27,84.txt
0,19,16,19,19,28,18,25,20,20,17,21,26,10,26,25,9,7,8,13,24,24,25,25,25,18,19,18,19,21,26,28,28,24,29,29,29,29,29,28,24,29,24,28,28,30,29,29,30,28,30,27,27,27,26,27,86.txt
0,19,16,19,19,28,18,25,20,20,17,23,26,10,5,25,9,7,8,13,24,24,25,25,25,18,19,18,19,21,26,28,28,24,29,29,29,29,29,28,24,29,24,6,28,30,29,29,30,28,30,27,27,27,26,27,89.txt
0,19,16,19,19,28,18,25,20,20,17,21,26,6,5,30,9,7,8,28,24,24,25,25,25,18,19,18,19,21,26,28,28,24,29,29,29,29,29,28,24,29,24,28,28,30,29,29,30,28,30,27,27,27,26,27,90.txt
0,19,16,19,19,28,18,25,20,20,16,21,26,6,5,30,9,29,11,28,24,24,25,25,25,18,19,18,19,21,26,28,28,24,29,29,29,29,29,28,24,29,24,28,28,30,29,29,30,28,30,27,27,27,26,27,92.txt
29,29,19,24,24,28,18,25,7,7,27,5,6,12,30,10,20,22,21,26,6,6,6,6,6,6,6,6,6,6,8,8,8,10,8,8,8,8,8,8,7,8,7,26,8,8,8,8,8,8,11,27,27,27,26,26,95.txt
0,23,17,23,23,30,19,26,14,14,14,15,26,9,26,9,25,5,5,28,26,26,27,26,27,23,26,24,24,25,6,9,9,11,9,9,9,9,9,9,29,9,29,9,9,9,9,9,9,9,9,9,9,9,9,9,97.txt
0,0,16,19,19,28,18,25,20,20,17,21,26,10,26,10,9,7,8,13,6,6,6,6,6,6,6,6,6,6,8,8,8,10,8,8,8,8,8,8,7,8,7,28,8,8,8,8,8,8,30,27,27,27,26,27,98.txt
0,19,16,19,19,28,18,25,20,20,17,26,26,10,26,25,9,7,8,28,24,24,25,25,25,18,19,18,19,21,26,28,28,24,29,29,29,29,29,28,24,29,24,28,28,30,29,29,30,28,28,30,27,29,29,27,100.txt
0,19,16,19,19,28,18,25,20,20,17,21,26,10,5,27,9,29,11,28,24,24,25,25,25,18,19,18,19,21,26,28,28,24,29,29,29,29,29,28,24,29,24,28,28,30,29,29,30,28,30,27,27,27,26,27,102.txt
0,19,16,19,19,28,18,25,20,20,17,21,26,10,26,10,9,7,8,13,6,6,6,6,6,6,6,6,6,6,8,8,8,10,8,8,8,8,8,8,7,8,7,28,8,8,8,8,8,8,30,27,27,27,26,27,105.txt
0,19,16,19,19,28,18,25,20,20,17,21,26,6,26,30,9,7,8,13,24,24,25,25,25,18,19,18,19,21,26,28,28,17,29,29,29,29,29,28,24,29,24,28,28,30,29,29,30,28,30,27,27,27,26,27,108.txt
0,19,16,19,19,25,27,22,20,20,17,21,26,10,26,25,9,7,8,13,24,24,25,25,25,18,19,18,19,21,26,28,28,24,29,29,29,29,29,28,24,29,24,28,28,30,29,29,30,28,30,27,27,27,26,27,110.txt
0,19,16,19,19,28,18,25,20,20,17,21,26,10,26,27,9,29,11,28,24,24,25,25,25,18,19,18,19,21,26,28,28,24,29,29,29,29,29,28,24,29,24,28,28,30,29,29,30,28,30,27,27,27,26,27,112.txt
0,19,25,17,17,20,22,11,20,20,12,21,13,10,26,25,12,13,13,11,24,24,25,25,25,18,19,18,19,21,26,28,28,24,29,29,29,29,29,28,24,29,24,10,28,30,29,29,30,28,14,13,13,13,13,29,114.txt
0,0,25,17,17,20,22,11,20,20,12,21,14,10,9,25,12,13,13,11,12,12,13,13,14,13,14,13,13,10,11,17,17,24,17,17,17,17,17,18,16,27,18,9,23,22,22,28,24,23,14,13,13,13,13,9,116.txt
0,19,16,19,19,25,27,22,20,20,17,26,26,10,5,25,9,7,8,13,24,24,25,25,25,18,19,18,19,21,26,28,28,24,29,29,29,29,29,28,24,29,24,6,28,30,29,29,30,28,28,30,27,29,29,27,118.txt
29,29,19,24,24,28,18,25,20,20,27,21,26,23,19,25,20,22,21,26,24,24,29,30,29,22,25,25,25,26,28,27,27,4,28,28,28,28,28,27,28,28,28,28,30,29,28,29,29,27,30,27,27,27,26,26,121.txt
0,19,16,19,19,25,27,22,24,23,14,19,9,12,5,27,22,29,11,28,24,24,25,25,25,18,19,18,19,21,26,28,28,24,29,29,29,29,29,28,24,29,24,6,28,30,29,29,30,28,28,30,27,29,29,27,123.txt
0,19,17,23,23,30,19,26,20,20,14,21,26,9,26,9,25,5,5,13,26,26,27,26,27,23,26,24,24,25,6,9,9,5,9,9,9,9,9,9,29,9,29,28,9,9,9,9,9,9,9,9,9,9,9,27,124.txt
0,19,16,19,19,28,18,25,11,11,17,13,10,6,26,30,9,29,11,28,6,6,6,6,6,6,6,6,6,6,8,8,8,10,8,8,8,8,8,8,7,8,7,28,8,8,8,8,8,8,30,27,27,27,26,27,126.txt
0,19,16,19,19,25,27,22,11,11,28,13,10,10,26,27,22,29,11,28,30,23,25,25,25,18,19,18,19,21,26,28,28,24,29,29,29,29,29,28,24,29,24,28,28,30,29,24,30,28,28,30,27,29,29,27,128.txt
0,19,16,19,19,28,18,25,20,20,14,21,26,6,5,30,9,30,11,28,28,28,25,25,25,18,19,18,19,21,26,28,28,24,29,29,29,29,29,28,24,29,24,6,28,30,29,24,30,28,28,30,27,29,29,27,130.txt
0,19,16,19,19,25,27,27,24,23,14,19,22,24,5,27,22,29,11,28,24,24,25,25,25,18,19,18,19,21,26,28,28,24,29,29,29,29,29,28,24,29,24,28,28,30,29,29,30,28,28,30,27,29,29,27,132.txt
0,0,16,10,9,28,18,25,20,20,17,21,26,10,26,25,9,7,8,13,12,12,25,25,25,13,14,13,13,10,11,17,17,17,17,17,17,17,17,18,16,27,18,21,23,22,22,28,24,23,30,27,27,27,26,21,135.txt
29,29,19,29,12,28,18,25,20,20,16,21,26,20,5,19,20,22,21,5,23,23,24,24,24,22,25,25,25,26,28,27,27,28,28,28,28,28,28,27,28,20,28,28,30,29,28,24,29,27,30,27,27,27,26,26,137.txt
0,19,16,19,19,28,18,25,20,20,17,21,26,10,5,25,9,7,8,13,24,24,25,25,25,18,19,18,19,21,26,28,28,24,29,29,29,29,29,28,24,29,24,28,28,30,29,29,30,28,30,27,27,27,26,27,141.txt
0,19,16,19,19,28,18,25,14,14,14,15,26,10,26,25,9,7,8,13,24,24,25,25,25,18,19,18,19,21,26,28,28,24,29,29,29,29,29,28,24,29,24,28,28,30,29,29,30,28,30,27,27,27,26,27,144.txt
0,19,16,19,19,25,27,22,29,29,28,26,26,10,26,27,22,29,11,28,24,24,25,25,25,18,19,18,19,21,26,28,28,24,29,29,29,29,29,28,24,29,24,28,28,30,29,29,30,28,28,30,27,29,29,27,145.txt
0,19,16,19,19,28,18,25,20,20,16,21,26,24,26,25,9,7,8,28,24,24,25,25,25,18,19,18,19,21,26,28,28,24,29,29,29,29,29,28,24,29,24,28,28,30,29,29,30,28,30,27,27,27,26,27,147.txt
0,0,16,10,9,28,18,25,20,20,17,21,26,10,9,25,9,7,8,13,12,12,13,13,14,13,14,13,13,10,11,17,17,24,17,17,17,17,17,18,16,27,18,21,23,22,22,28,24,23,30,27,27,27,26,21,149.txt
0,19,16,19,19,28,18,25,29,29,14,21,26,6,5,20,9,7,8,13,24,24,25,25,25,18,19,18,19,21,26,28,28,24,29,29,29,29,29,28,24,29,24,6,28,30,29,29,30,28,30,27,27,27,26,27,151.txt
0,19,16,19,19,25,27,22,20,20,26,21,26,10,5,25,22,7,8,13,24,24,25,25,25,18,19,18,19,21,26,28,28,24,29,29,29,29,29,28,24,29,24,28,28,30,29,29,30,28,30,27,27,27,26,27,154.txt
0,19,16,19,19,25,27,22,24,23,17,19,9,6,26,30,9,29,11,28,24,24,25,25,25,18,19,18,19,21,26,28,28,24,29,29,29,29,29,28,24,29,24,28,28,30,29,29,30,28,30,27,27,27,26,27,156.txt
0,19,16,19,19,28,18,25,20,20,17,21,26,12,5,10,9,7,8,13,6,6,6,6,6,6,6,6,6,6,8,8,8,10,8,8,8,8,8,8,7,8,7,28,8,8,8,8,8,8,30,27,27,27,26,27,158.txt
0,19,16,19,19,25,27,22,14,14,14,15,26,10,26,25,22,7,8,28,24,24,25,25,25,18,19,18,19,21,26,28,28,24,29,29,29,29,29,28,24,29,24,28,28,30,29,29,30,28,28,30,27,29,29,27,160.txt
0,0,16,10,9,28,18,25,20,20,17,21,26,10,5,25,9,7,8,13,12,12,13,13,14,13,14,13,13,10,11,17,17,24,17,17,17,17,17,18,16,27,18,21,23,22,22,28,24,23,30,27,27,27,26,21,161.txt
0,19,17,23,23,30,19,26,20,20,17,21,26,9,5,9,25,5,5,13,26,26,27,26,27,8,26,24,24,25,10,9,9,1,9,9,9,9,9,9,29,9,29,28,9,9,9,9,9,9,9,9,9,9,9,27,163.txt
0,19,16,19,19,28,18,25,24,23,17,24,9,6,26,30,9,29,11,28,6,6,6,6,6,6,6,6,6,6,8,8,8,1,8,8,8,8,8,8,7,8,7,28,8,8,8,8,8,8,30,27,27,27,26,27,165.txt
0,19,16,19,19,28,18,25,24,23,17,24,9,6,26,30,9,7,8,13,23,23,25,25,25,18,19,18,19,21,26,28,28,24,29,29,29,29,29,28,24,29,24,28,28,30,29,24,30,28,30,27,27,27,26,27,167.txt
0,19,16,19,19,28,18,25,20,20,17,21,26,6,5,30,9,29,23,28,6,6,6,6,6,6,6,6,6,6,8,8,8,10,8,8,8,8,8,8,7,8,7,28,8,8,8,8,8,8,30,27,27,27,26,27,169.txt
0,19,16,19,19,28,18,25,24,23,14,24,9,6,26,20,9,7,8,13,24,24,25,25,25,18,19,18,19,21,26,28,28,24,29,29,29,29,29,28,24,29,24,28,28,30,29,29,30,28,28,30,27,29,29,27,171.txt
0,19,16,19,19,28,18,25,20,20,17,21,26,12,26,10,9,7,8,13,6,6,6,6,6,6,6,6,6,6,8,8,8,10,8,8,8,8,8,8,7,8,7,28,8,8,8,8,8,8,30,27,27,27,26,27,173.txt
0,19,16,19,19,25,27,27,11,11,14,13,10,10,26,25,22,7,8,13,28,28,20,21,23,18,19,18,19,21,26,28,28,24,29,29,29,29,29,28,24,29,24,28,28,30,29,24,30,28,28,30,27,29,29,27,175.txt
0,12,16,4,4,11,13,7,6,4,3,9,1,1,5,1,1,1,1,1,4,4,4,4,1,1,1,1,1,1,1,1,1,24,1,1,1,1,1,1,26,29,26,27,29,1,30,30,1,29,1,1,1,1,1,1,177.txt
0,19,16,19,19,28,18,25,20,20,17,21,26,10,26,10,9,7,8,13,6,6,6,6,6,6,6,6,6,6,8,8,8,10,8,8,8,8,8,8,7,8,7,28,8,8,8,8,8,8,30,27,27,27,26,27,179.txt
0,19,16,19,19,28,18,25,24,23,16,24,9,6,26,30,9,7,8,5,24,24,25,25,25,18,19,18,19,21,26,28,28,24,29,29,29,29,29,28,24,29,24,28,28,30,29,29,30,28,30,27,27,27,26,27,182.txt
0,19,16,19,19,28,18,25,24,23,17,24,9,10,5,10,9,29,11,28,6,6,6,6,6,6,6,6,6,6,8,8,8,10,8,8,8,8,8,8,7,8,7,28,8,8,8,8,8,8,30,27,27,27,26,27,184.txt
0,19,16,19,19,28,18,25,24,23,14,24,9,6,5,30,9,29,23,28,24,24,25,25,25,18,19,18,19,21,26,28,28,24,29,29,29,29,29,28,24,29,24,28,28,30,29,29,30,28,30,27,27,27,26,27,188.txt
0,19,17,23,23,30,19,26,20,20,17,21,26,9,26,9,25,5,5,13,26,26,27,26,27,23,26,24,24,25,6,9,9,11,9,9,9,9,9,9,29,9,29,28,9,9,9,9,9,9,9,9,9,9,9,27,189.txt
0,19,16,19,19,25,27,22,20,20,17,21,26,10,26,25,9,7,8,13,23,23,25,25,25,18,19,18,19,21,26,28,28,24,29,29,29,29,29,28,24,29,24,12,28,30,29,24,30,28,30,27,27,27,26,9,191.txt
0,23,9,19,19,28,18,30,24,23,14,7,9,6,4,7,8,30,24,29,24,24,25,25,25,18,19,18,19,14,18,28,28,4,29,29,29,29,29,28,24,4,24,28,28,30,29,29,30,28,30,27,27,27,26,27,194.txt
0,19,28,19,19,25,27,22,11,11,28,13,10,10,26,27,22,29,11,28,24,24,25,25,25,18,19,18,19,21,26,28,28,25,29,29,29,29,29,28,24,29,24,28,28,30,29,29,30,28,28,30,27,29,29,27,197.txt
0,19,16,19,19,25,27,22,20,20,14,21,26,10,26,25,22,7,8,13,24,24,25,25,25,18,19,18,19,21,26,28,28,25,29,29,29,29,29,28,24,29,24,9,28,30,29,29,30,28,28,30,27,29,29,8,199.txt
0,19,17,23,23,30,19,26,20,20,17,21,26,6,26,30,25,5,5,13,26,26,27,26,27,23,26,24,24,25,6,9,9,5,9,9,9,9,9,9,29,9,29,28,9,9,9,9,9,9,9,9,9,9,9,27,203.txt
0,19,28,19,19,25,27,22,24,23,14,19,23,10,26,27,22,29,23,28,28,28,20,21,23,18,19,18,19,21,26,28,28,25,29,29,29,29,29,28,24,29,24,28,28,30,29,24,30,28,28,30,27,29,29,27,204.txt
0,19,11,6,5,30,19,26,20,20,17,21,26,9,5,9,25,5,5,13,26,26,27,26,27,8,5,5,5,5,10,6,6,11,6,6,6,6,6,6,6,6,6,6,6,7,6,6,6,6,6,6,6,6,6,27,209.txt
0,0,16,10,9,28,18,25,20,20,7,21,26,12,9,25,9,7,8,13,12,12,13,13,14,13,14,13,13,10,11,17,17,24,17,17,17,17,17,18,16,27,18,21,23,22,22,28,24,23,30,27,27,27,26,21,210.txt
0,10,14,7,6,8,10,10,17,18,17,24,9,6,26,30,9,29,11,23,17,17,25,25,25,18,19,18,19,21,26,24,26,24,26,27,27,27,27,26,24,29,24,22,28,28,27,27,28,26,30,27,27,27,26,24,212.txt
0,19,16,19,19,28,18,25,20,20,17,21,26,10,5,25,9,7,8,13,24,24,25,25,25,18,19,18,19,21,26,28,28,24,29,29,29,29,29,28,24,29,24,10,28,30,29,29,30,28,30,27,27,27,26,8,214.txt
0,27,4,25,4,11,13,7,6,4,3,8,8,8,24,28,27,9,4,6,4,4,4,4,1,26,28,27,26,27,4,4,4,4,4,4,4,4,4,4,30,30,30,27,4,4,4,4,4,4,4,4,4,4,4,4,217.txt
0,19,16,19,19,28,18,25,20,20,17,21,26,10,26,26,9,29,11,28,24,24,25,25,25,18,19,18,19,21,26,28,28,28,29,29,29,29,29,28,24,20,24,28,28,30,29,29,30,28,30,27,27,27,26,27,219.txt
0,19,16,19,19,28,18,25,20,20,17,21,26,6,26,30,9,7,8,13,24,24,25,25,25,18,19,18,19,21,26,28,28,24,29,29,29,29,29,28,24,20,24,28,28,30,29,29,30,28,30,27,27,27,26,27,220.txt
0,0,16,10,9,28,18,25,20,20,17,21,26,10,9,10,9,7,8,13,6,6,6,6,6,6,6,6,6,6,8,8,8,10,8,8,8,8,8,8,7,8,7,9,8,8,8,8,8,8,30,27,27,27,26,9,222.txt
0,19,16,19,19,28,18,25,24,23,17,24,9,6,5,30,9,29,11,28,6,6,6,6,6,6,6,6,6,6,8,8,8,10,8,8,8,8,8,8,7,8,7,6,8,8,8,8,8,8,30,27,27,27,26,27,225.txt
0,19,16,19,19,28,18,25,20,20,17,21,26,6,26,20,9,7,8,13,24,24,25,25,25,18,19,18,19,21,26,28,28,24,29,29,29,29,29,28,24,29,24,28,28,30,29,29,30,28,30,27,27,27,26,27,227.txt
0,19,16,19,19,28,18,25,20,20,17,21,26,10,26,10,9,7,8,13,6,6,6,6,6,6,6,6,6,6,8,8,8,10,8,8,8,8,8,8,7,8,7,28,8,8,8,8,8,8,30,27,27,27,26,27,229.txt
0,0,16,10,9,28,18,25,20,20,8,21,26,10,9,10,9,7,8,5,6,6,6,6,6,6,6,6,6,6,8,8,8,10,8,8,8,8,8,8,7,8,7,21,8,8,8,8,8,8,30,27,27,27,26,21,231.txt
0,19,16,19,19,28,18,25,20,20,17,21,26,12,5,10,9,7,8,13,6,6,6,6,6,6,6,6,6,6,8,8,8,10,8,8,8,8,8,8,7,8,7,28,8,8,8,8,8,8,30,27,27,27,26,27,236.txt
0,19,16,19,19,28,18,25,20,20,17,21,26,10,26,25,9,7,8,13,24,24,25,25,25,18,19,18,19,21,26,28,28,24,29,29,29,29,29,28,24,29,24,10,28,30,29,29,30,28,30,27,27,27,26,8,241.txt
0,19,16,19,19,28,18,25,20,20,16,21,26,10,26,10,9,7,8,28,6,6,6,6,6,6,6,6,6,6,8,8,8,28,8,8,8,8,8,8,7,8,7,28,8,8,8,8,8,8,30,27,27,27,26,27,242.txt
0,19,16,19,19,28,18,25,29,29,14,21,26,10,26,25,9,7,8,13,24,24,25,25,25,18,19,18,19,21,26,28,28,24,29,29,29,29,29,28,24,29,24,28,28,30,29,29,30,28,28,30,27,29,29,27,245.txt
0,0,0,0,0,1,3,0,4,5,1,0,0,0,0,0,0,0,0,0,0,0,0,0,0,0,0,0,0,0,0,0,0,10,0,0,0,0,0,0,0,0,0,0,0,0,0,0,0,0,0,0,0,0,0,0,247.txt
0,19,16,19,19,28,18,25,20,20,17,21,26,10,26,25,9,7,8,13,23,23,25,25,25,18,19,18,19,21,26,28,28,24,29,29,29,29,29,28,24,29,24,9,28,30,29,24,30,28,30,27,27,27,26,9,249.txt
29,30,29,24,24,20,22,13,20,20,25,21,14,23,30,27,14,29,11,15,23,23,24,24,24,30,25,25,25,26,28,20,27,23,21,21,20,19,20,19,17,28,28,29,18,19,19,19,19,18,14,13,13,13,13,29,250.txt
0,19,16,19,19,25,27,22,29,29,26,21,26,10,26,25,22,7,8,13,24,24,25,25,25,18,19,18,19,21,26,28,28,24,29,29,29,29,29,28,24,29,24,28,28,30,29,29,30,28,28,30,27,29,29,27,252.txt
0,11,16,3,2,7,9,2,2,2,4,9,1,1,5,1,1,1,1,1,16,16,16,16,2,1,1,1,1,1,1,1,1,10,1,1,1,1,1,1,26,8,26,27,29,1,30,30,1,29,1,1,1,1,1,1,256.txt
0,19,16,19,19,28,18,25,20,20,17,21,26,10,26,10,9,6,7,7,6,6,6,6,6,6,6,6,6,6,8,8,8,10,8,8,8,8,8,8,7,8,7,28,8,5,8,8,8,8,30,27,27,27,26,27,258.txt
0,19,16,19,19,28,18,25,29,29,14,26,26,6,5,30,9,7,8,13,24,24,25,25,25,18,19,18,19,21,26,28,28,17,29,29,29,29,29,28,24,29,24,28,28,30,29,29,30,28,30,27,27,27,26,27,260.txt
0,0,17,23,23,30,19,26,20,20,17,21,26,9,9,9,25,5,5,13,26,26,27,26,27,23,26,24,24,25,6,9,9,11,9,9,9,9,9,9,29,9,29,21,9,9,9,9,9,9,9,9,9,9,9,21,261.txt
0,19,16,19,19,28,18,25,20,20,17,21,26,6,5,30,9,7,8,13,6,6,6,6,6,6,6,6,6,6,8,8,8,10,8,8,8,8,8,8,7,8,7,28,8,8,8,8,8,8,30,27,27,27,26,27,264.txt
0,19,16,19,19,28,18,25,20,20,17,21,26,6,5,30,9,7,8,13,24,24,25,25,25,18,19,18,19,21,26,28,28,17,29,29,29,29,29,28,24,29,24,28,28,30,29,29,30,28,30,27,27,27,26,27,269.txt
0,19,16,19,19,28,18,25,24,23,17,24,9,6,26,30,9,7,8,13,24,24,25,25,25,18,19,18,19,21,26,28,28,24,29,29,29,29,29,28,24,29,24,28,28,30,29,29,30,28,30,27,27,27,26,27,272.txt
0,19,16,19,19,28,18,25,20,20,17,21,26,6,26,30,9,7,8,13,24,24,25,25,25,18,19,18,19,21,26,28,28,24,29,29,29,29,29,28,24,29,24,28,28,30,29,29,30,28,30,27,27,27,26,27,274.txt
0,0,17,23,23,30,19,26,20,20,17,21,26,9,9,9,25,5,5,13,26,26,27,26,27,8,26,24,24,25,10,9,9,11,9,9,9,9,9,9,29,9,29,21,9,5,9,9,9,9,9,9,9,9,9,21,276.txt
0,0,16,10,9,28,18,25,28,7,17,5,6,10,5,25,9,7,8,13,12,12,13,13,14,13,14,13,13,10,11,17,17,24,17,17,17,17,17,18,16,27,18,21,23,22,22,24,24,23,25,27,27,27,26,21,280.txt
0,19,16,19,19,25,27,22,24,23,17,10,9,6,28,30,9,29,11,28,24,24,25,25,25,18,19,18,19,21,26,28,28,24,29,29,29,29,29,28,24,29,24,28,28,30,29,29,30,28,28,30,27,29,29,27,282.txt
0,19,17,23,23,30,19,26,20,20,17,21,26,9,26,9,25,5,5,13,26,26,27,26,27,23,26,24,24,25,6,9,9,11,9,9,9,9,9,9,29,9,29,9,9,9,9,9,9,9,9,9,9,9,9,9,283.txt
0,19,16,19,19,28,18,25,20,20,17,21,26,10,26,25,9,7,8,13,24,24,25,25,25,18,19,18,19,21,26,28,28,24,29,29,29,29,29,28,24,29,24,10,28,30,29,29,30,28,30,27,27,27,26,8,284.txt
0,19,16,19,19,28,18,25,20,20,17,21,26,12,5,10,9,7,8,13,6,6,6,6,6,6,6,6,6,6,8,8,8,10,8,8,8,8,8,8,7,8,7,28,8,8,8,8,8,8,30,27,27,27,26,27,286.txt
0,19,16,19,19,28,18,25,20,20,17,21,26,10,26,25,9,7,8,13,24,24,25,25,25,18,19,18,19,21,26,28,28,24,29,29,29,29,29,28,24,29,24,28,28,30,29,29,30,28,30,27,27,27,26,27,288.txt
0,19,16,19,19,28,18,25,20,20,17,21,26,12,5,13,9,7,8,13,6,6,6,6,6,6,6,6,6,6,8,8,8,10,8,8,8,8,8,8,7,8,7,28,8,8,8,8,8,8,30,27,27,27,26,27,290.txt
0,19,16,19,19,25,27,21,20,20,14,21,26,10,26,25,9,7,8,13,24,24,25,25,25,18,19,18,19,21,26,28,28,24,29,29,29,29,29,28,24,29,24,9,28,30,29,29,30,28,30,27,27,27,26,8,293.txt
0,0,17,23,23,30,19,26,20,20,17,21,26,9,9,9,25,5,5,13,26,26,27,26,27,8,26,24,24,25,10,9,9,5,9,9,9,9,9,9,29,9,29,21,9,9,9,9,9,9,9,9,9,9,9,21,295.txt
8,28,14,8,8,10,12,29,30,30,23,19,9,10,14,26,9,30,11,25,25,25,25,25,25,19,20,19,20,24,27,24,26,24,30,30,30,30,30,30,23,11,23,12,27,28,27,27,28,30,28,30,27,29,29,9,297.txt
0,19,16,19,19,28,18,25,20,20,17,21,26,12,26,25,9,7,8,13,24,24,25,25,25,18,19,18,19,21,26,28,28,24,29,29,29,29,29,28,24,29,24,28,28,30,29,29,30,28,30,27,27,27,26,27,300.txt
0,19,16,19,19,28,18,25,20,20,17,21,26,6,5,30,9,7,8,13,6,6,6,6,6,6,6,6,6,6,8,8,8,10,8,8,8,8,8,8,7,8,7,28,8,8,8,8,8,8,30,27,27,27,26,27,303.txt
0,0,16,19,19,28,18,25,7,7,17,5,6,12,5,10,9,7,8,13,6,6,6,6,6,6,6,6,6,6,8,8,8,10,8,8,8,8,8,8,7,8,7,28,8,8,8,8,8,8,25,27,27,27,26,27,305.txt
0,19,16,19,19,28,18,25,20,20,17,21,26,10,26,10,9,7,8,13,6,6,6,6,6,6,6,6,6,6,8,8,8,10,8,8,8,8,8,8,7,8,7,28,8,8,8,8,8,8,30,27,27,27,26,27,307.txt
0,19,16,19,19,25,27,21,20,20,17,21,26,12,5,25,9,7,8,13,24,24,25,25,25,18,19,18,19,21,26,28,28,24,29,29,29,29,29,28,24,29,24,28,28,30,29,29,30,28,28,30,27,29,29,27,311.txt
0,19,16,19,19,28,18,25,20,20,17,21,26,10,5,25,9,7,8,13,24,24,25,25,25,18,19,18,19,21,26,28,28,24,29,29,29,29,29,28,24,29,24,28,28,30,29,29,30,28,30,27,27,27,26,27,313.txt
29,19,16,19,19,25,27,22,20,20,14,23,26,10,26,26,20,7,8,28,24,24,29,30,29,28,25,30,30,26,28,28,28,23,29,29,29,29,29,28,28,29,28,28,30,30,29,29,30,28,28,30,27,29,29,27,318.txt
0,19,16,19,19,28,18,25,20,20,17,21,26,6,26,30,9,7,8,13,24,24,25,25,25,18,19,18,19,21,26,28,28,24,29,29,29,29,29,28,24,29,24,28,28,30,29,29,30,28,30,27,27,27,26,27,320.txt
29,29,19,22,22,26,28,21,22,21,25,25,9,28,2,27,20,29,11,28,30,23,24,24,24,22,25,25,25,26,28,27,27,23,28,28,28,28,28,27,28,2,28,29,30,29,28,24,29,27,28,30,27,29,29,9,322.txt
29,29,19,22,22,26,28,21,22,21,25,25,9,28,2,27,20,29,11,28,30,23,24,24,24,22,25,25,25,26,28,27,27,23,28,28,28,28,28,27,28,2,28,29,30,29,28,24,29,27,28,30,27,29,29,9,323.txt
0,19,16,19,19,28,18,25,20,20,17,21,26,6,26,30,9,7,8,13,6,6,6,6,6,6,6,6,6,6,8,8,8,10,8,8,8,8,8,8,7,8,7,28,8,8,8,8,8,8,30,27,27,27,26,27,324.txt
22,19,17,23,23,30,19,26,20,20,17,21,26,9,26,9,25,5,5,13,26,26,27,26,27,23,26,24,24,25,6,9,9,11,9,9,9,9,9,9,29,9,29,9,9,9,9,9,9,9,9,9,9,9,9,29,326.txt
0,19,16,19,19,28,18,25,20,20,17,21,26,10,26,25,9,7,8,13,23,23,25,25,25,18,19,18,19,21,26,28,28,26,29,29,29,29,29,28,24,29,24,9,28,30,29,24,30,28,30,27,27,27,26,9,328.txt
0,19,16,19,19,28,18,25,11,11,17,13,10,6,26,30,9,29,11,28,24,24,25,25,25,18,19,18,19,21,26,28,28,24,29,29,29,29,29,28,24,29,24,28,28,30,29,29,30,28,30,27,27,27,26,27,329.txt
0,0,16,10,9,28,18,25,20,20,17,21,26,24,9,10,9,7,8,27,6,6,6,6,6,6,6,6,6,6,8,8,8,10,8,8,8,8,8,8,7,8,7,21,8,8,8,8,8,8,30,27,27,27,26,21,333.txt
0,19,16,19,19,28,18,25,20,20,17,21,26,10,26,25,9,7,8,13,24,24,25,25,25,18,19,18,19,21,26,28,28,24,29,29,29,29,29,28,24,29,24,28,28,30,29,29,30,28,30,27,27,27,26,27,335.txt
0,19,16,19,19,28,18,25,20,20,17,21,26,6,5,30,9,7,8,13,6,6,6,6,6,6,6,6,6,6,8,8,8,10,8,8,8,8,8,8,7,8,7,28,8,8,8,8,8,8,30,27,27,27,26,27,337.txt
22,29,19,29,12,28,18,25,20,20,27,21,26,10,26,25,20,22,21,26,23,23,24,24,24,22,25,25,25,26,28,27,27,23,28,28,28,28,28,27,28,28,28,29,30,29,28,24,29,27,30,27,27,27,26,29,341.txt
22,30,19,24,24,28,18,25,20,20,27,21,26,12,19,25,20,22,21,26,23,23,24,24,24,22,25,25,25,26,28,27,27,23,28,28,28,28,28,27,28,28,28,29,30,29,28,24,29,27,28,30,27,29,29,9,342.txt
0,19,16,19,19,25,27,22,20,20,14,21,26,10,26,25,9,7,8,13,24,24,25,25,25,18,19,18,19,21,26,28,28,24,29,29,29,29,29,28,24,29,24,28,28,30,29,29,30,28,28,30,27,29,29,27,344.txt
0,19,16,19,19,28,18,25,20,20,17,21,26,6,26,30,9,7,8,13,24,24,25,25,25,18,19,18,19,21,26,28,28,24,29,29,29,29,29,28,24,29,24,28,28,30,29,29,30,28,30,27,27,27,26,27,347.txt
0,0,16,10,9,28,18,25,20,20,17,21,26,10,9,25,9,7,8,13,12,12,13,13,14,13,14,13,13,10,11,17,17,24,17,17,17,17,17,18,16,27,18,21,23,22,22,28,24,23,30,27,27,27,26,21,349.txt
0,19,17,23,23,30,19,26,20,20,17,21,26,9,11,9,25,5,5,13,26,26,27,26,27,8,26,24,24,25,10,9,9,5,9,9,9,9,9,9,29,9,29,21,9,9,9,9,9,9,9,9,9,9,9,21,352.txt
0,19,17,23,23,30,19,26,24,23,17,24,9,6,11,30,25,5,5,13,26,26,27,26,27,8,26,24,24,25,10,9,9,5,9,9,9,9,9,9,29,9,29,28,9,9,9,9,9,9,9,9,9,9,9,27,354.txt
0,19,16,19,19,28,18,25,20,20,17,21,26,10,26,25,9,7,8,13,24,24,25,25,25,18,19,18,19,21,26,28,28,24,29,29,29,29,29,28,24,29,24,28,28,30,29,29,30,28,30,27,27,27,26,27,358.txt
0,19,16,19,19,28,18,25,20,20,17,21,26,10,26,25,9,7,8,13,24,24,25,25,25,18,19,18,19,21,26,28,28,24,29,29,29,29,29,28,24,29,24,28,28,30,29,29,30,28,30,27,27,27,26,27,360.txt
0,19,16,19,19,28,18,25,20,20,17,21,26,12,26,25,9,7,8,13,30,23,25,25,25,18,19,18,19,21,26,28,28,24,29,29,29,29,29,28,24,29,24,28,28,30,29,24,30,28,30,27,27,27,26,27,362.txt
0,19,16,19,19,28,18,25,29,29,17,21,26,10,26,10,9,7,8,13,6,6,6,6,6,6,6,6,6,6,8,8,8,10,8,8,8,8,8,8,7,8,7,28,8,8,8,8,8,8,30,27,27,27,26,27,364.txt
0,0,16,10,9,28,18,25,20,20,17,21,26,10,5,10,9,7,8,13,6,6,6,6,6,6,6,6,6,6,8,8,8,10,8,8,8,8,8,8,7,8,7,21,8,8,8,8,8,8,30,27,27,27,26,21,365.txt
29,26,30,21,21,29,28,27,22,21,30,24,9,23,23,25,20,22,21,28,28,28,29,30,29,28,25,30,30,26,28,27,27,23,28,28,28,28,28,27,28,28,28,28,30,29,28,24,29,27,28,30,27,29,29,26,368.txt
0,19,16,19,19,25,27,22,11,11,28,13,10,6,11,30,22,29,11,28,24,24,25,25,25,18,19,18,19,21,26,28,28,24,29,29,29,29,29,28,24,29,24,28,28,30,29,29,30,28,28,30,27,29,29,27,369.txt
0,19,16,19,19,28,18,25,20,20,17,21,26,6,26,30,9,7,8,13,6,6,6,6,6,6,6,6,6,6,8,8,8,10,8,8,8,8,8,8,7,8,7,28,8,8,8,8,8,8,30,27,27,27,26,27,371.txt
29,8,14,8,8,14,16,30,18,19,23,7,9,23,2,7,8,30,11,25,25,25,24,24,24,22,25,25,25,14,18,24,26,23,30,30,30,30,30,30,28,2,28,30,30,28,27,27,28,30,30,27,27,27,26,30,375.txt
0,0,16,10,9,28,18,25,20,20,17,21,26,10,9,25,9,7,8,13,12,12,13,13,14,13,14,13,13,10,11,17,17,24,17,17,17,17,17,18,16,27,18,21,23,22,22,28,24,23,30,27,27,27,26,21,377.txt
0,19,16,19,19,28,18,25,20,20,17,21,26,6,5,30,9,7,8,13,24,24,25,25,25,18,19,18,19,21,26,28,28,17,29,29,29,29,29,28,24,29,24,6,28,30,29,29,30,28,30,27,27,27,26,27,380.txt
29,12,4,4,28,11,13,7,6,4,3,22,20,17,3,3,3,3,6,21,4,4,4,4,30,2,2,2,2,27,25,23,18,4,7,18,7,13,7,7,26,3,26,27,16,16,18,7,7,7,7,15,7,16,7,7,382.txt
0,0,16,10,9,28,18,25,20,20,17,21,26,10,9,10,9,7,8,27,6,6,6,6,6,6,6,6,6,6,8,8,8,10,8,8,8,8,8,8,7,8,7,21,8,8,8,8,8,8,30,27,27,27,26,21,385.txt
0,19,16,27,30,25,27,17,24,23,23,19,9,21,2,30,22,29,11,25,25,25,25,25,25,18,19,18,19,21,26,24,26,25,30,30,30,30,30,30,24,2,24,30,28,28,27,27,28,30,28,30,27,29,29,30,386.txt
0,19,16,19,19,25,27,22,29,29,14,23,26,29,26,30,22,7,8,13,24,24,25,25,25,18,19,18,19,21,26,28,28,24,29,29,29,29,29,28,24,29,24,28,28,30,29,29,30,28,28,30,27,29,29,27,387.txt
0,19,16,19,19,25,27,22,24,23,14,24,9,12,5,25,9,7,8,13,23,23,25,25,25,18,19,18,19,21,26,28,28,24,29,29,29,29,29,28,24,29,24,6,28,30,29,24,30,28,28,30,27,29,29,27,391.txt
0,0,16,10,9,28,18,25,20,20,17,21,26,10,9,10,9,7,8,13,6,6,6,6,6,6,6,6,6,6,8,8,8,10,8,8,8,8,8,8,7,8,7,10,8,8,8,8,8,8,30,27,27,27,26,29,394.txt
0,0,11,6,5,30,19,26,20,20,17,21,26,9,5,9,25,5,5,13,26,26,27,26,27,8,5,5,5,5,10,6,6,11,6,6,6,6,6,6,6,6,6,9,6,5,6,6,6,6,6,6,6,6,6,9,395.txt
0,0,17,23,23,30,19,26,20,20,17,21,26,9,5,9,25,5,5,13,26,26,27,26,27,23,26,24,24,25,6,9,9,11,9,9,9,9,9,9,29,9,29,21,9,9,9,9,9,9,9,9,9,9,9,21,397.txt
0,19,16,19,19,28,18,25,7,7,17,5,6,10,5,25,9,7,8,13,24,24,25,25,25,18,19,18,19,21,26,28,28,17,29,29,29,29,29,28,24,29,24,6,28,30,29,29,30,28,25,27,27,27,26,27,400.txt
0,0,25,17,17,20,22,11,20,20,14,21,14,10,9,25,12,13,13,11,12,12,13,13,14,13,14,13,13,10,11,17,17,8,17,17,17,17,17,18,16,27,18,9,23,22,22,28,24,23,14,13,13,13,13,29,402.txt
0,19,16,19,19,28,18,25,20,20,17,21,26,12,26,25,9,7,8,13,24,24,25,25,25,18,19,18,19,21,26,28,28,24,29,29,29,29,29,28,24,29,24,28,28,30,29,29,30,28,30,27,27,27,26,27,405.txt
0,19,16,19,19,28,18,25,20,20,17,21,26,10,26,25,9,7,8,28,24,24,25,25,25,18,19,18,19,21,26,28,28,24,29,29,29,29,29,28,24,29,24,28,28,30,29,29,30,28,28,30,27,29,29,27,407.txt
0,19,16,19,19,28,18,25,20,20,17,21,26,10,11,25,9,7,8,13,24,24,25,25,25,18,19,18,19,21,26,28,28,24,29,29,29,29,29,28,24,29,24,9,28,30,29,29,30,28,30,27,27,27,26,29,411.txt
0,19,16,19,19,28,18,25,20,20,17,21,26,6,26,30,9,7,8,13,23,23,25,25,25,18,19,18,19,21,26,28,28,24,29,29,29,29,29,28,24,29,24,28,28,30,29,24,30,28,30,27,27,27,26,27,413.txt
0,19,16,19,19,28,18,25,20,20,17,21,26,10,26,10,9,7,8,13,6,6,6,6,6,6,6,6,6,6,8,8,8,10,8,8,8,8,8,8,7,8,7,28,8,8,8,8,8,8,30,27,27,27,26,27,416.txt
0,19,16,19,19,25,27,22,20,20,14,21,26,10,26,25,9,7,8,13,24,24,25,25,25,18,19,18,19,21,26,28,28,24,29,29,29,29,29,28,24,29,24,10,28,30,29,29,30,28,28,30,27,29,29,29,417.txt
0,19,17,23,23,30,19,26,20,20,28,21,26,9,26,9,25,29,11,28,26,26,27,26,27,23,26,24,24,25,6,9,9,28,9,9,9,9,9,9,29,9,29,28,9,9,9,9,9,9,9,9,9,9,9,27,419.txt
0,19,16,19,19,28,18,25,20,20,17,21,26,10,26,25,9,7,8,13,24,24,25,25,25,18,19,18,19,21,26,28,28,24,29,29,29,29,29,28,24,29,24,28,28,30,29,29,30,28,30,27,27,27,26,27,421.txt
0,19,16,19,19,28,18,25,20,20,17,21,26,6,26,30,9,7,8,13,24,24,25,25,25,18,19,18,19,21,26,28,28,24,29,29,29,29,29,28,24,29,24,28,28,30,29,29,30,28,30,27,27,27,26,27,423.txt
0,19,16,19,19,28,18,25,20,20,17,21,26,10,11,10,9,7,8,13,6,6,6,6,6,6,6,6,6,6,8,8,8,10,8,8,8,8,8,8,7,8,7,28,8,8,8,8,8,8,30,27,27,27,26,27,425.txt
0,0,16,10,9,28,18,25,20,20,16,21,26,24,26,10,9,11,11,27,6,6,6,6,6,6,6,6,6,6,8,8,8,10,8,8,8,8,8,8,7,8,7,21,8,8,8,8,8,8,30,27,27,27,26,21,427.txt
0,19,16,19,19,28,18,25,20,20,16,21,26,6,26,30,9,7,8,13,6,6,6,6,6,6,6,6,6,6,8,8,8,10,8,8,8,8,8,8,7,8,7,28,8,8,8,8,8,8,30,27,27,27,26,27,430.txt
29,0,19,13,12,28,18,25,28,7,27,5,6,10,5,10,20,22,21,26,6,6,6,6,6,6,6,6,6,6,8,8,8,10,8,8,8,8,8,8,7,8,7,21,8,8,8,8,8,8,25,27,27,27,26,26,434.txt
0,19,16,19,19,25,27,22,29,29,14,21,26,10,5,25,22,7,8,13,24,24,25,25,25,18,19,18,19,21,26,28,28,24,29,29,29,29,29,28,24,29,24,28,28,30,29,29,30,28,28,30,27,29,29,27,436.txt
0,19,16,19,19,28,18,25,20,20,17,21,26,10,26,10,9,7,8,13,6,6,6,6,6,6,6,6,6,6,8,8,8,10,8,8,8,8,8,8,7,8,7,28,8,8,8,8,8,8,30,27,27,27,26,27,439.txt
0,19,16,19,19,28,18,25,20,20,17,21,26,10,26,25,9,7,8,13,30,23,25,25,25,18,19,18,19,21,26,28,28,24,29,29,29,29,29,28,24,29,24,9,28,30,29,24,30,28,28,30,27,29,29,29,444.txt
0,19,16,19,19,28,18,25,20,20,17,21,26,10,5,25,9,7,8,13,24,24,25,25,25,18,19,18,19,21,26,28,28,24,29,29,29,29,29,28,24,29,24,9,28,30,29,29,30,28,30,27,27,27,26,29,447.txt
0,19,16,19,19,25,27,21,20,20,14,21,26,10,26,25,9,7,8,13,24,24,25,25,25,18,19,18,19,21,26,28,28,3,29,29,29,29,29,28,24,29,24,9,28,30,29,29,30,28,30,27,27,27,26,29,449.txt
0,10,14,14,14,27,30,23,25,26,22,24,9,29,18,20,22,29,11,23,17,17,25,25,25,19,20,19,20,24,27,24,26,25,26,27,27,27,27,26,23,24,23,22,27,28,27,27,28,26,28,30,27,29,29,24,452.txt
22,24,19,24,24,28,18,25,20,20,27,21,26,12,19,10,20,22,21,26,6,6,6,6,6,6,6,6,6,6,8,8,8,10,8,8,8,8,8,8,7,8,7,28,8,8,8,8,8,8,28,30,27,29,29,26,454.txt
0,0,16,10,9,28,18,25,20,20,17,21,26,10,9,10,9,7,8,13,6,6,6,6,6,6,6,6,6,6,8,8,8,10,8,8,8,8,8,8,7,8,7,9,8,5,8,8,8,8,30,27,27,27,26,29,456.txt
0,19,16,19,19,28,18,25,20,20,17,21,26,6,26,30,9,7,8,13,6,6,6,6,6,6,6,6,6,6,8,8,8,10,8,8,8,8,8,8,7,8,7,28,8,8,8,8,8,8,30,27,27,27,26,27,458.txt
0,11,16,3,2,7,9,2,2,2,4,9,1,1,26,1,30,1,1,1,16,16,16,16,2,24,27,26,27,29,1,1,1,24,1,1,1,1,1,1,26,29,26,27,29,1,30,30,1,29,1,1,1,1,1,1,460.txt
0,19,16,19,19,25,27,22,24,23,14,24,23,10,5,25,9,7,8,13,24,24,25,25,25,18,19,18,19,21,26,28,28,24,29,29,29,29,29,28,24,29,24,28,28,30,29,29,30,28,28,30,27,29,29,27,463.txt
0,19,16,19,19,28,18,25,20,20,17,21,26,12,26,10,9,7,8,13,6,6,6,6,6,6,6,6,6,6,8,8,8,10,8,8,8,8,8,8,7,8,7,28,8,8,8,8,8,8,30,27,27,27,26,27,465.txt
0,0,16,10,9,28,18,25,20,20,17,21,26,10,9,10,9,7,8,13,6,6,6,6,6,6,6,6,6,6,8,8,8,10,8,8,8,8,8,8,7,8,7,21,8,5,8,8,8,8,30,27,27,27,26,21,469.txt
29,11,19,3,2,7,9,2,2,2,4,9,1,1,16,1,1,1,1,1,16,16,16,16,2,1,1,1,1,1,1,1,1,10,1,1,1,1,1,1,26,1,26,27,29,1,30,30,1,29,1,1,1,1,1,1,472.txt
0,19,16,19,19,25,27,21,29,29,14,21,26,10,26,25,9,7,8,13,24,24,25,25,25,18,19,18,19,21,26,28,28,24,29,29,29,29,29,28,24,29,24,28,28,30,29,29,30,28,30,27,27,27,26,27,473.txt
0,0,16,10,9,28,18,25,7,7,17,5,6,10,9,10,9,7,8,13,6,6,6,6,6,6,6,6,6,6,8,8,8,10,8,8,8,8,8,8,7,8,7,9,8,8,8,8,8,8,25,27,27,27,26,9,475.txt
0,11,16,3,2,7,9,2,2,2,4,9,1,1,9,1,1,1,1,1,16,16,16,16,2,1,1,1,1,1,1,1,1,10,1,1,1,1,1,1,26,8,26,27,29,1,30,30,1,29,1,1,1,1,1,1,477.txt
0,19,16,19,19,28,18,25,11,11,17,13,10,6,26,30,9,7,8,13,24,24,25,25,25,18,19,18,19,21,26,28,28,24,29,29,29,29,29,28,24,29,24,28,28,30,29,29,30,28,30,27,27,27,26,27,479.txt
0,19,16,19,19,28,18,25,24,23,17,24,9,6,26,30,9,7,8,13,24,24,25,25,25,18,19,18,19,21,26,28,28,24,29,29,29,29,29,28,24,29,24,28,28,30,29,29,30,28,30,27,27,27,26,27,481.txt
0,19,16,19,19,28,18,25,20,20,17,21,26,10,26,25,9,7,8,13,24,24,25,25,25,18,19,18,19,21,26,28,28,24,29,29,29,29,29,28,24,29,24,28,28,30,29,29,30,28,30,27,27,27,26,27,485.txt
0,0,16,19,19,28,18,25,20,20,17,21,26,6,26,30,9,29,11,28,6,6,6,6,6,6,6,6,6,6,8,8,8,10,8,8,8,8,8,8,7,8,7,28,8,8,8,8,8,8,30,27,27,27,26,27,487.txt
0,19,16,19,19,28,18,25,20,20,17,21,26,10,26,25,9,7,8,13,24,24,25,25,25,18,19,18,19,21,26,28,28,24,29,29,29,29,29,28,24,29,24,10,28,30,29,29,30,28,30,27,27,27,26,8,488.txt
0,19,16,19,19,25,27,22,20,20,17,21,26,6,5,30,9,7,8,13,24,24,25,25,25,18,19,18,19,21,26,28,28,24,29,29,29,29,29,28,24,29,24,6,28,30,29,29,30,28,30,27,27,27,26,27,491.txt
0,0,16,10,9,28,18,25,20,20,17,21,26,10,9,10,9,7,8,13,6,6,6,6,6,6,6,6,6,6,8,8,8,1,8,8,8,8,8,8,7,8,7,21,8,8,8,8,8,8,30,27,27,27,26,21,492.txt
0,19,16,19,19,28,18,25,20,20,17,21,26,12,26,10,9,7,8,13,6,6,6,6,6,6,6,6,6,6,8,8,8,10,8,8,8,8,8,8,7,8,7,28,8,8,8,8,8,8,30,27,27,27,26,27,494.txt
0,19,17,23,23,30,19,26,20,20,17,21,26,9,26,9,25,5,5,13,26,26,27,26,27,8,26,24,24,25,10,9,9,11,9,9,9,9,9,9,29,9,29,9,9,9,9,9,9,9,9,9,9,9,9,9,496.txt
0,19,16,19,19,28,18,25,24,23,17,24,9,6,26,30,9,7,8,28,6,6,6,6,6,6,6,6,6,6,8,8,8,10,8,8,8,8,8,8,7,8,7,28,8,8,8,8,8,8,30,27,27,27,26,27,498.txt
0,19,16,19,19,28,18,25,20,20,17,21,26,10,26,10,9,7,8,13,6,6,6,6,6,6,6,6,6,6,8,8,8,10,8,8,8,8,8,8,7,8,7,28,8,8,8,8,8,8,30,27,27,27,26,27,500.txt
0,19,16,19,19,28,18,25,20,20,17,21,26,10,26,25,9,7,8,13,24,24,25,25,25,18,19,18,19,21,26,28,28,24,29,29,29,29,29,28,24,29,24,9,28,30,29,29,30,28,30,27,27,27,26,29,502.txt
0,0,16,10,9,28,18,25,20,20,17,21,26,12,9,25,9,7,8,13,12,12,13,13,14,13,14,13,13,10,11,17,17,24,17,17,17,17,17,18,16,27,18,21,23,22,22,24,24,23,30,27,27,27,26,21,503.txt
18,0,19,13,12,16,18,14,20,20,27,21,26,10,5,25,20,22,21,26,12,12,24,24,24,22,25,25,25,26,28,27,27,1,28,28,28,28,28,27,28,28,28,21,30,29,28,24,29,27,30,27,27,27,26,26,505.txt
0,19,16,19,19,28,18,25,24,23,17,24,9,6,5,30,9,29,11,28,6,6,6,6,6,6,6,6,6,6,8,8,8,10,8,8,8,8,8,8,7,8,7,28,8,8,8,8,8,8,30,27,27,27,26,27,507.txt
0,19,16,19,19,25,27,22,29,29,28,23,26,12,26,25,22,7,8,13,24,24,25,25,25,18,19,18,19,21,26,28,28,24,29,29,29,29,29,28,24,29,24,10,28,30,29,29,30,28,28,30,27,29,29,29,510.txt
0,19,16,19,19,28,18,25,24,23,17,24,9,6,26,30,9,7,8,13,24,24,25,25,25,18,19,18,19,21,26,28,28,24,29,29,29,29,29,28,24,29,24,28,28,30,29,29,30,28,30,27,27,27,26,27,513.txt
0,19,16,19,19,28,18,25,20,20,17,21,26,6,26,30,9,7,8,13,24,24,25,25,25,18,19,18,19,21,26,28,28,24,29,29,29,29,29,28,24,29,24,28,28,30,29,29,30,28,30,27,27,27,26,27,516.txt
22,30,19,24,24,28,18,25,20,20,27,21,26,23,5,25,20,22,21,26,23,23,24,24,24,22,25,25,25,26,28,27,27,23,28,28,28,28,28,27,28,28,28,29,30,29,28,24,29,27,30,27,27,27,26,29,518.txt
0,19,4,19,19,25,27,22,29,29,14,26,26,10,26,25,22,7,8,13,24,24,25,25,25,18,19,18,19,21,26,28,28,3,29,29,29,29,29,28,24,29,24,9,28,30,29,29,30,28,28,30,27,29,29,29,521.txt
15,19,16,19,19,28,18,25,20,20,17,21,26,10,16,27,9,7,8,7,23,23,25,25,25,18,19,18,19,21,26,28,28,4,29,29,29,29,29,28,24,1,24,28,28,5,29,24,30,28,30,27,27,27,26,27,524.txt
0,11,16,3,2,7,9,2,2,2,4,9,1,1,26,1,1,1,1,1,16,16,16,16,2,1,1,1,1,1,1,1,1,10,1,1,1,1,1,1,26,8,26,27,29,1,30,30,1,29,1,1,1,1,1,1,527.txt
0,19,16,19,19,28,18,25,20,20,17,21,26,6,26,30,9,7,8,13,6,6,6,6,6,6,6,6,6,6,8,8,8,10,8,8,8,8,8,8,7,8,7,28,8,8,8,8,8,8,30,27,27,27,26,27,529.txt
0,19,16,19,19,25,27,22,24,23,26,24,9,10,26,25,22,7,8,13,23,23,25,25,25,18,19,18,19,21,26,28,28,24,29,29,29,29,29,28,24,29,24,28,28,30,29,24,30,28,28,30,27,29,29,27,530.txt
0,11,16,3,2,7,9,2,2,2,4,9,1,1,26,1,1,1,1,1,16,16,16,16,2,1,1,1,1,1,1,1,1,24,1,1,1,1,1,1,26,29,26,27,29,1,30,30,1,29,1,1,1,1,1,1,532.txt
0,19,16,19,19,28,18,25,20,20,17,21,26,10,11,25,9,7,8,13,24,24,25,25,25,18,19,18,19,21,26,28,28,24,29,29,29,29,29,28,24,29,24,28,28,5,29,29,30,28,30,27,27,27,26,27,534.txt
0,19,16,19,19,28,18,25,24,23,17,24,9,6,26,30,9,29,11,28,23,23,25,25,25,18,19,18,19,21,26,28,28,24,29,29,29,29,29,28,24,29,24,28,28,30,29,24,30,28,30,27,27,27,26,27,536.txt
0,19,16,19,19,28,18,25,11,11,17,13,10,6,26,20,9,7,8,13,24,24,25,25,25,18,19,18,19,21,26,28,28,24,29,29,29,29,29,28,24,29,24,28,28,30,29,29,30,28,30,27,27,27,26,27,538.txt
0,19,17,23,23,13,15,8,20,20,17,21,26,6,26,30,11,5,5,13,8,8,8,8,8,23,26,24,24,25,6,9,9,5,9,9,9,9,9,9,29,9,29,28,9,9,9,9,9,9,9,9,9,9,9,27,541.txt
0,19,16,19,19,28,18,25,20,20,17,21,26,6,26,30,9,7,8,13,6,6,6,6,6,6,6,6,6,6,8,8,8,10,8,8,8,8,8,8,7,8,7,28,8,8,8,8,8,8,30,27,27,27,26,27,543.txt
0,0,16,10,9,28,18,25,20,20,17,21,26,10,9,10,9,7,8,13,6,6,6,6,6,6,6,6,6,6,8,8,8,10,8,8,8,8,8,8,7,8,7,21,8,5,8,8,8,8,30,27,27,27,26,21,545.txt
0,19,16,19,19,28,18,25,24,23,17,24,9,10,26,26,9,29,11,28,24,24,25,25,25,18,19,18,19,21,26,28,28,24,29,29,29,29,29,28,24,29,24,9,28,30,29,29,30,28,30,27,27,27,26,9,549.txt
0,0,16,10,9,28,18,25,20,20,17,21,26,10,5,25,9,7,8,13,12,12,13,13,14,13,14,13,13,10,11,17,17,24,17,17,17,17,17,18,16,27,18,10,23,22,22,24,24,23,30,27,27,27,26,8,551.txt
0,19,16,19,19,28,18,25,24,23,17,24,9,6,26,30,9,7,8,13,24,24,25,25,25,18,19,18,19,21,26,28,28,17,29,29,29,29,29,28,24,29,24,28,28,30,29,29,30,28,25,27,27,27,26,27,554.txt
0,19,17,23,23,30,19,26,20,20,17,21,26,9,26,9,25,5,5,13,26,26,27,26,27,8,26,24,24,25,10,9,9,11,9,9,9,9,9,9,29,9,29,28,9,9,9,9,9,9,9,9,9,9,9,27,557.txt
0,19,16,19,19,28,18,25,20,20,17,21,26,6,26,30,9,7,8,13,6,6,6,6,6,6,6,6,6,6,8,8,8,10,8,8,8,8,8,8,7,8,7,28,8,8,8,8,8,8,30,27,27,27,26,27,558.txt
0,19,16,19,19,28,18,25,20,20,17,21,26,12,26,10,9,7,8,13,6,6,6,6,6,6,6,6,6,6,8,8,8,10,8,8,8,8,8,8,7,8,7,28,8,8,8,8,8,8,30,27,27,27,26,27,561.txt
30,27,19,28,25,11,13,28,26,27,4,9,1,1,2,1,30,1,1,1,16,16,28,29,28,24,27,26,27,29,1,1,1,23,1,1,1,1,1,1,26,2,26,27,29,1,30,30,1,29,1,1,1,1,1,1,564.txt
0,19,24,16,16,19,21,11,29,29,12,21,14,10,10,25,12,12,12,11,24,24,25,25,25,18,19,18,19,21,26,28,28,24,29,29,29,29,29,28,24,29,24,9,28,30,29,29,30,28,13,12,12,12,12,29,566.txt
0,0,16,10,9,28,18,25,20,20,17,21,26,10,9,10,9,7,8,13,6,6,6,6,6,6,6,6,6,6,8,8,8,10,8,8,8,8,8,8,7,8,7,9,8,8,8,8,8,8,30,27,27,27,26,9,568.txt
0,19,16,19,19,28,18,25,20,20,17,21,26,10,5,25,9,7,8,13,24,24,25,25,25,18,19,18,19,21,26,28,28,24,29,29,29,29,29,28,24,29,24,28,28,30,29,29,30,28,30,27,27,27,26,27,572.txt
0,19,16,19,19,28,18,25,20,20,17,21,26,10,26,13,9,7,8,13,6,6,6,6,6,6,6,6,6,6,8,8,8,10,8,8,8,8,8,8,7,8,7,28,8,8,8,8,8,8,30,27,27,27,26,27,574.txt
0,19,16,19,19,28,18,25,20,20,17,21,26,6,26,30,9,7,8,13,24,24,25,25,25,18,19,18,19,21,26,28,28,24,29,29,29,29,29,28,24,29,24,28,28,30,29,29,30,28,30,27,27,27,26,27,576.txt
0,19,16,19,19,28,18,25,20,20,17,21,26,6,5,30,9,7,8,13,6,6,6,6,6,6,6,6,6,6,8,8,8,10,8,8,8,8,8,8,7,8,7,28,8,8,8,8,8,8,30,27,27,27,26,27,578.txt
0,0,16,10,9,28,18,25,7,7,17,5,6,10,11,10,9,6,7,7,6,6,6,6,6,6,6,6,6,6,8,8,8,10,8,8,8,8,8,8,7,8,7,21,8,5,8,8,8,8,25,27,27,27,26,21,580.txt
0,0,16,10,9,28,18,25,20,20,17,21,26,10,9,10,9,7,8,13,6,6,6,6,6,6,6,6,6,6,8,8,8,10,8,8,8,8,8,8,7,8,7,21,8,8,8,8,8,8,30,27,27,27,26,21,582.txt
0,23,16,19,19,28,18,25,14,14,14,15,26,6,26,20,9,29,11,28,24,24,25,25,25,18,19,18,19,21,26,28,28,26,29,29,29,29,29,28,24,29,24,28,28,30,29,29,30,28,30,27,27,27,26,27,584.txt
0,12,16,4,2,11,13,2,2,2,4,2,2,2,5,2,2,2,2,2,16,16,16,16,2,2,2,2,2,27,2,2,2,24,2,2,2,2,2,2,26,29,26,27,2,2,2,2,2,2,2,2,2,2,2,2,586.txt
0,19,16,19,19,28,18,25,20,20,17,21,26,10,26,10,9,7,8,13,6,6,6,6,6,6,6,6,6,6,8,8,8,10,8,8,8,8,8,8,7,8,7,28,8,8,8,8,8,8,30,27,27,27,26,27,588.txt
0,23,16,19,19,28,18,25,24,23,14,24,9,10,26,27,9,29,11,28,28,28,25,25,25,18,19,18,19,21,26,28,28,24,29,29,29,29,29,28,24,29,24,28,28,30,29,24,30,28,28,30,27,29,29,27,591.txt
0,19,16,19,19,28,18,25,20,20,17,21,26,10,26,25,9,7,8,13,24,24,25,25,25,18,19,18,19,21,26,28,28,17,29,29,29,29,29,28,24,29,24,28,28,5,29,29,30,28,30,27,27,27,26,27,594.txt
0,0,16,10,9,28,18,25,20,20,17,21,26,10,5,25,9,7,8,13,12,12,13,13,14,13,14,13,13,10,11,17,17,24,17,17,17,17,17,18,16,27,18,21,23,22,22,28,24,23,30,27,27,27,26,21,596.txt
0,19,16,19,19,25,27,30,24,23,14,7,9,6,28,7,8,29,11,28,24,24,25,25,25,18,19,18,19,14,18,28,28,24,29,29,29,29,29,28,24,30,24,28,28,30,29,29,30,28,28,30,27,29,29,27,598.txt
0,19,16,19,19,28,18,25,20,20,17,21,26,6,26,30,9,7,8,13,24,24,25,25,25,18,19,18,19,21,26,28,28,24,29,29,29,29,29,28,24,29,24,28,28,30,29,29,30,28,30,27,27,27,26,27,600.txt
0,19,16,19,19,28,18,25,20,20,17,21,26,6,26,30,9,7,8,13,23,23,25,25,25,18,19,18,19,21,26,28,28,24,29,29,29,29,29,28,24,29,24,28,28,30,29,24,30,28,30,27,27,27,26,27,603.txt
0,19,16,19,19,28,18,25,7,7,17,5,6,12,26,10,9,7,8,13,6,6,6,6,6,6,6,6,6,6,8,8,8,10,8,8,8,8,8,8,7,8,7,28,8,8,8,8,8,8,25,27,27,27,26,27,604.txt
0,19,16,19,19,28,18,25,7,7,17,5,6,6,26,30,9,7,8,13,6,6,6,6,6,6,6,6,6,6,8,8,8,10,8,8,8,8,8,8,7,8,7,28,8,8,8,8,8,8,25,27,27,27,26,27,606.txt
0,19,16,19,19,28,18,25,24,23,14,24,9,10,26,27,9,29,11,13,23,23,25,25,25,18,19,18,19,21,26,28,28,24,29,29,29,29,29,28,24,29,24,28,28,30,29,24,30,28,28,30,27,29,29,27,607.txt
0,19,16,19,19,28,18,25,20,20,17,21,26,13,26,10,9,7,8,28,6,6,6,6,6,6,6,6,6,6,8,8,8,10,8,8,8,8,8,8,7,8,7,28,8,8,8,8,8,8,30,27,27,27,26,27,613.txt
0,19,16,19,19,28,18,25,24,23,17,24,22,6,26,30,9,29,11,28,24,24,25,25,25,18,19,18,19,21,26,28,28,24,29,29,29,29,29,28,24,29,24,28,28,30,29,29,30,28,30,27,27,27,26,27,615.txt
0,19,16,19,19,28,18,25,20,20,14,26,26,6,26,20,9,7,8,13,24,24,25,25,25,18,19,18,19,21,26,28,28,24,29,29,29,29,29,28,24,29,24,28,28,30,29,29,30,28,30,27,27,27,26,27,618.txt
0,19,16,19,19,28,18,25,24,23,17,24,9,6,5,30,9,29,11,28,24,24,25,25,25,18,19,18,19,21,26,28,28,24,29,29,29,29,29,28,24,29,24,28,28,30,29,29,30,28,28,30,27,29,29,27,621.txt
0,11,16,3,4,7,9,7,6,4,3,9,1,1,26,1,1,1,1,1,4,4,4,4,1,1,1,1,1,1,1,1,1,10,1,1,1,1,1,1,26,8,26,27,29,1,30,30,1,29,1,1,1,1,1,1,623.txt
0,19,16,19,19,25,27,22,20,20,14,21,26,10,2,25,9,7,8,13,28,28,25,25,25,18,19,18,19,21,26,28,28,24,29,29,29,29,29,28,24,2,24,9,28,30,29,24,30,28,28,30,27,29,29,9,624.txt
0,19,16,19,19,25,27,22,20,20,26,26,26,21,26,20,22,29,11,28,24,24,25,25,25,18,19,18,19,21,26,28,28,24,29,29,29,29,29,28,24,29,24,28,28,30,29,29,30,28,30,27,27,27,26,27,627.txt
0,19,16,19,19,28,18,25,20,20,17,21,26,10,5,12,9,7,8,13,23,23,25,25,25,18,19,18,19,21,26,28,28,24,29,29,29,29,29,28,24,29,24,28,28,30,29,24,30,28,30,27,27,27,26,27,628.txt
0,0,16,10,9,28,18,25,20,20,16,21,26,24,9,10,9,7,8,13,6,6,6,6,6,6,6,6,6,6,8,8,8,10,8,8,8,8,8,8,7,8,7,21,8,8,8,8,8,8,30,27,27,27,26,21,629.txt
29,4,4,25,4,5,2,7,6,4,3,8,8,8,29,28,27,9,4,6,4,4,4,4,1,2,2,2,2,27,4,4,4,28,4,4,4,4,4,4,25,25,25,25,4,4,4,4,4,4,4,4,4,4,4,4,631.txt
29,30,30,21,21,28,18,25,27,28,30,25,9,23,11,27,20,29,11,28,28,28,24,24,24,28,25,30,30,26,28,27,27,23,28,28,28,28,28,27,28,28,28,29,30,29,28,24,29,27,28,30,27,29,29,29,633.txt
0,19,16,19,19,28,18,25,11,11,17,13,10,10,5,10,9,29,11,28,6,6,6,6,6,6,6,6,6,6,8,8,8,10,8,8,8,8,8,8,7,8,7,28,8,8,8,8,8,8,30,27,27,27,26,27,635.txt
0,19,16,19,19,28,18,25,20,20,17,21,26,6,26,30,9,7,8,13,6,6,6,6,6,6,6,6,6,6,8,8,8,10,8,8,8,8,8,8,7,8,7,28,8,8,8,8,8,8,30,27,27,27,26,27,637.txt
0,23,25,17,17,20,22,11,24,23,14,24,23,10,29,26,12,30,11,28,24,24,20,21,23,18,19,18,19,21,26,28,28,25,29,29,29,29,29,28,24,29,24,6,28,30,29,29,30,28,14,13,13,13,13,27,642.txt
0,19,16,19,19,28,18,25,20,20,17,21,26,24,26,10,9,7,8,13,6,6,6,6,6,6,6,6,6,6,8,8,8,10,8,8,8,8,8,8,7,8,7,28,8,8,8,8,8,8,30,27,27,27,26,27,645.txt
29,23,19,21,21,29,28,22,27,28,30,19,9,20,4,19,20,30,11,28,28,28,24,24,24,28,25,30,30,26,28,27,27,4,28,28,28,28,28,27,28,4,28,26,30,29,28,24,29,27,28,30,27,29,29,30,647.txt
29,29,19,24,24,28,18,25,20,20,25,21,26,28,30,25,20,22,21,26,23,23,24,24,24,22,25,25,25,26,28,27,27,23,28,28,28,28,28,27,28,28,28,26,30,29,28,24,29,27,30,27,27,27,26,26,650.txt
0,19,16,19,19,25,27,22,29,29,28,21,26,12,10,25,22,7,8,13,24,24,25,25,25,18,19,18,19,21,26,28,28,25,29,29,29,29,29,28,24,29,24,28,28,30,29,29,30,28,28,30,27,29,29,27,652.txt
0,0,16,10,9,28,18,25,20,20,17,21,26,10,9,10,9,7,8,13,6,6,6,6,6,6,6,6,6,6,8,8,8,28,8,8,8,8,8,8,7,8,7,9,8,8,8,8,8,8,30,27,27,27,26,29,654.txt
0,19,25,17,17,20,22,11,20,20,12,21,14,10,26,25,12,13,13,11,24,24,25,25,25,18,19,18,19,21,26,28,28,24,29,29,29,29,29,28,24,29,24,9,28,30,29,29,30,28,14,13,13,13,13,9,657.txt
0,19,16,19,19,28,18,25,20,20,17,21,26,10,26,25,9,7,8,13,24,24,25,25,25,18,19,18,19,21,26,28,28,24,29,29,29,29,29,28,24,29,24,28,28,30,29,29,30,28,30,27,27,27,26,27,658.txt
0,19,16,19,19,25,27,22,20,20,26,21,26,27,26,30,22,7,8,13,23,23,25,25,25,18,19,18,19,21,26,28,28,2,29,29,29,29,29,28,24,20,24,28,28,30,29,24,30,28,28,30,27,29,29,27,662.txt
0,19,16,19,19,28,18,25,24,23,17,19,9,6,26,30,9,7,8,13,23,23,25,25,25,18,19,18,19,21,26,28,28,24,29,29,29,29,29,28,24,29,24,28,28,30,29,24,30,28,30,27,27,27,26,27,663.txt
0,19,16,19,19,25,27,22,20,20,28,21,26,24,5,25,9,7,8,13,24,24,25,25,25,18,19,18,19,21,26,28,28,24,29,29,29,29,29,28,24,29,24,28,28,30,29,29,30,28,28,30,27,29,29,27,665.txt
0,19,16,19,19,28,18,25,24,23,17,19,9,6,26,30,9,29,11,28,24,24,25,25,25,18,19,18,19,21,26,28,28,24,29,29,29,29,29,28,24,29,24,28,28,30,29,29,30,28,28,30,27,29,29,27,669.txt
0,19,16,19,19,28,18,25,24,23,14,24,9,6,26,30,9,29,11,28,24,24,25,25,25,18,19,18,19,21,26,28,28,24,29,29,29,29,29,28,24,29,24,28,28,30,29,29,30,28,28,30,27,29,29,27,671.txt
0,19,16,19,19,25,27,22,14,14,14,15,26,12,11,27,22,29,11,28,24,24,25,25,25,18,19,18,19,21,26,28,28,25,29,29,29,29,29,28,24,29,24,10,28,30,29,29,30,28,28,30,27,29,29,29,673.txt
0,19,16,10,9,28,18,25,20,20,17,21,26,10,9,10,9,7,8,13,6,6,6,6,6,6,6,6,6,6,8,8,8,10,8,8,8,8,8,8,7,8,7,21,8,8,8,8,8,8,30,27,27,27,26,21,675.txt
0,0,16,10,9,28,18,25,20,20,17,21,26,10,2,10,9,7,8,13,6,6,6,6,6,6,6,6,6,6,8,8,8,10,8,8,8,8,8,8,7,2,7,21,8,8,8,8,8,8,30,27,27,27,26,21,678.txt
0,19,16,19,19,28,18,25,20,20,17,21,26,10,26,10,9,7,8,13,6,6,6,6,6,6,6,6,6,6,8,8,8,10,8,8,8,8,8,8,7,8,7,28,8,8,8,8,8,8,30,27,27,27,26,27,680.txt
0,0,16,10,9,28,18,25,20,20,17,21,26,6,5,30,9,7,8,13,6,6,6,6,6,6,6,6,6,6,8,8,8,10,8,8,8,8,8,8,7,8,7,6,8,8,8,8,8,8,30,27,27,27,26,21,683.txt
0,19,16,19,19,28,18,25,20,20,17,21,26,24,26,25,9,7,8,13,24,24,25,25,25,18,19,18,19,21,26,28,28,24,29,29,29,29,29,28,24,29,24,28,28,30,29,29,30,28,30,27,27,27,26,27,685.txt
0,19,16,10,9,28,18,25,20,20,17,21,26,6,9,30,9,7,8,13,6,6,6,6,6,6,6,6,6,6,8,8,8,10,8,8,8,8,8,8,7,8,7,21,8,8,8,8,8,8,30,27,27,27,26,21,687.txt
0,0,16,10,9,24,26,20,20,20,17,21,26,10,9,10,9,7,8,13,6,6,6,6,6,6,6,6,6,6,8,8,8,10,8,8,8,8,8,8,7,8,7,21,8,8,8,8,8,8,28,30,27,29,29,21,689.txt
0,19,16,19,19,25,27,22,29,29,17,21,26,12,5,25,9,7,8,13,30,23,25,25,25,18,19,18,19,21,26,28,28,24,29,29,29,29,29,28,24,29,24,6,28,30,29,24,30,28,28,30,27,29,29,27,691.txt
29,29,19,24,24,28,18,25,20,20,27,21,26,23,19,25,20,22,21,26,23,23,24,24,24,22,25,25,25,26,28,27,27,23,28,28,28,28,28,27,28,28,28,29,30,29,28,24,29,27,28,30,27,29,29,9,695.txt
0,19,16,10,9,16,18,14,20,20,17,21,26,10,5,10,9,7,8,13,6,6,6,6,6,6,6,6,6,6,8,8,8,1,8,8,8,8,8,8,7,8,7,21,8,8,8,8,8,8,30,27,27,27,26,21,696.txt
0,19,16,19,19,28,18,25,7,7,17,5,6,12,5,25,9,7,8,13,24,24,25,25,25,18,19,18,19,21,26,28,28,17,29,29,29,29,29,28,24,29,24,28,28,30,29,29,30,28,25,27,27,27,26,27,700.txt
0,19,16,19,19,28,18,25,20,20,14,21,26,6,5,30,9,7,8,13,23,23,25,25,25,18,19,18,19,21,26,28,28,24,29,29,29,29,29,28,24,29,24,28,28,30,29,24,30,28,30,27,27,27,26,27,703.txt
29,27,3,28,4,11,13,7,6,4,3,9,1,1,2,1,30,1,1,1,4,4,4,4,1,24,27,26,27,29,1,1,1,4,1,1,1,1,1,1,26,2,26,27,29,1,30,30,1,29,1,1,1,1,1,1,705.txt
0,0,16,10,9,28,18,25,20,20,17,21,26,12,9,10,9,7,8,13,6,6,6,6,6,6,6,6,6,6,8,8,8,10,8,8,8,8,8,8,7,8,7,21,8,8,8,8,8,8,30,27,27,27,26,21,706.txt
27,29,19,29,12,28,18,25,20,20,27,21,26,10,26,25,20,22,21,26,24,24,24,24,24,22,25,25,25,26,28,27,27,23,28,28,28,28,28,27,28,28,28,9,30,29,28,29,29,27,30,27,27,27,26,29,709.txt
0,19,25,17,17,20,22,12,20,20,13,21,14,10,5,25,13,13,13,11,23,23,25,25,25,18,19,18,19,21,26,28,28,24,29,29,29,29,29,28,24,29,24,9,28,30,29,24,30,28,14,13,13,13,13,9,711.txt
29,26,30,22,22,26,28,22,22,21,25,24,9,28,5,27,20,22,21,28,24,24,29,30,29,22,25,25,25,26,28,27,27,23,28,28,28,28,28,27,28,28,28,28,30,29,28,29,29,27,28,30,27,29,29,26,712.txt
0,19,17,23,23,30,19,26,20,20,17,21,26,9,5,9,25,5,5,13,26,26,27,26,27,8,26,24,24,25,10,9,9,11,9,9,9,9,9,9,29,9,29,28,9,9,9,9,9,9,9,9,9,9,9,27,713.txt
0,19,16,19,19,28,18,25,24,23,17,10,22,6,28,30,9,29,11,28,24,24,25,25,25,18,19,18,19,21,26,28,28,28,29,29,29,29,29,28,24,20,24,28,28,30,29,29,30,28,11,27,27,27,26,27,716.txt
0,0,16,10,9,28,18,25,20,20,17,21,26,10,5,10,9,7,8,13,6,6,6,6,6,6,6,6,6,6,8,8,8,10,8,8,8,8,8,8,7,8,7,9,8,8,8,8,8,8,30,27,27,27,26,9,722.txt
0,19,16,19,19,28,18,25,20,20,17,21,26,10,26,25,9,7,8,13,23,23,25,25,25,18,19,18,19,21,26,28,28,24,29,29,29,29,29,28,24,29,24,28,28,30,29,24,30,28,30,27,27,27,26,27,724.txt
0,19,16,19,19,25,27,22,11,11,14,13,10,29,26,30,22,29,11,28,24,24,25,25,25,18,19,18,19,21,26,28,28,2,29,29,29,29,29,28,24,20,24,28,28,30,29,29,30,28,28,30,27,29,29,27,727.txt
0,0,16,10,9,28,18,25,20,20,17,21,26,12,9,10,9,7,8,13,6,6,6,6,6,6,6,6,6,6,8,8,8,10,8,8,8,8,8,8,7,8,7,21,8,8,8,8,8,8,30,27,27,27,26,21,728.txt
0,19,16,19,19,28,18,25,20,20,17,21,26,6,26,30,9,7,8,13,6,6,6,6,6,6,6,6,6,6,8,8,8,10,8,8,8,8,8,8,7,8,7,28,8,8,8,8,8,8,30,27,27,27,26,27,732.txt
29,0,19,24,24,28,18,25,7,7,27,5,6,12,5,10,20,22,21,26,6,6,6,6,6,6,6,6,6,6,8,8,8,10,8,8,8,8,8,8,7,8,7,6,8,8,8,8,8,8,25,27,27,27,26,26,734.txt
0,11,16,3,25,7,9,28,26,27,4,9,1,1,26,1,1,1,1,1,16,16,28,29,28,1,1,1,1,1,1,1,1,17,1,1,1,1,1,1,26,29,26,27,29,1,30,30,1,29,1,1,1,1,1,1,735.txt
0,19,16,19,19,28,18,25,20,20,17,21,26,10,10,25,9,7,8,13,24,24,25,25,25,18,19,18,19,21,26,28,28,17,29,29,29,29,29,28,24,29,24,9,28,30,29,29,30,28,30,27,27,27,26,29,737.txt
0,0,16,10,9,28,18,25,20,20,17,21,26,10,9,10,9,7,8,13,6,6,6,6,6,6,6,6,6,6,8,8,8,10,8,8,8,8,8,8,7,8,7,21,8,8,8,8,8,8,30,27,27,27,26,21,738.txt
0,19,16,19,19,28,18,25,20,20,17,21,26,10,5,12,9,7,8,13,24,24,25,25,25,18,19,18,19,21,26,28,28,17,29,29,29,29,29,28,24,29,24,28,28,30,29,29,30,28,30,27,27,27,26,27,741.txt
0,19,11,6,5,30,19,11,20,20,12,21,14,9,5,9,25,5,5,11,26,26,27,26,27,23,5,5,5,5,6,6,6,11,6,6,6,6,6,6,6,6,6,9,6,7,6,6,6,6,6,6,6,6,6,29,743.txt
0,0,16,10,9,28,18,25,20,20,17,21,26,10,9,10,9,7,8,13,6,6,6,6,6,6,6,6,6,6,8,8,8,10,8,8,8,8,8,8,7,8,7,21,8,8,8,8,8,8,30,27,27,27,26,21,747.txt
0,19,11,6,5,30,19,26,20,20,17,21,26,9,11,9,25,5,5,13,26,26,27,26,27,8,5,5,5,5,10,6,6,5,6,6,6,6,6,6,6,6,6,28,6,7,6,6,6,6,6,6,6,6,6,27,748.txt
0,19,16,19,19,28,18,25,20,20,17,21,26,6,26,30,9,7,8,13,6,6,6,6,6,6,6,6,6,6,8,8,8,10,8,8,8,8,8,8,7,8,7,28,8,8,8,8,8,8,30,27,27,27,26,27,751.txt
0,19,16,19,19,25,27,22,29,29,14,26,26,10,26,25,22,7,8,13,24,24,25,25,25,18,19,18,19,21,26,28,28,28,29,29,29,29,29,28,24,29,24,10,28,30,29,29,30,28,28,30,27,29,29,29,755.txt
22,29,19,13,12,28,18,25,29,29,27,21,26,12,26,10,20,22,21,26,6,6,6,6,6,6,6,6,6,6,8,8,8,10,8,8,8,8,8,8,7,8,7,29,8,8,8,8,8,8,30,27,27,27,26,9,756.txt
0,19,16,19,19,28,18,25,24,23,17,24,9,6,26,30,9,7,8,13,24,24,25,25,25,18,19,18,19,21,26,28,28,17,29,29,29,29,29,28,24,29,24,28,28,30,29,29,30,28,30,27,27,27,26,27,760.txt
0,19,16,19,19,25,27,22,29,29,16,26,26,10,26,25,22,7,8,13,24,24,25,25,25,18,19,18,19,21,26,28,28,25,29,29,29,29,29,28,24,29,24,10,28,30,29,29,30,28,28,30,27,29,29,29,765.txt
0,0,16,10,9,28,18,25,7,7,17,5,6,10,5,10,9,7,8,13,6,6,6,6,6,6,6,6,6,6,8,8,8,10,8,8,8,8,8,8,7,8,7,9,8,8,8,8,8,8,25,27,27,27,26,8,766.txt
0,0,16,19,19,28,18,25,20,20,17,21,26,6,26,30,9,7,8,13,6,6,6,6,6,6,6,6,6,6,8,8,8,10,8,8,8,8,8,8,7,8,7,28,8,8,8,8,8,8,30,27,27,27,26,27,768.txt
0,0,16,10,9,28,18,25,20,20,17,21,26,10,9,10,9,7,8,13,6,6,6,6,6,6,6,6,6,6,8,8,8,10,8,8,8,8,8,8,7,8,7,9,8,8,8,8,8,8,30,27,27,27,26,29,771.txt
0,19,16,19,19,28,18,25,20,20,17,21,26,10,26,10,9,7,8,13,6,6,6,6,6,6,6,6,6,6,8,8,8,10,8,8,8,8,8,8,7,8,7,28,8,8,8,8,8,8,30,27,27,27,26,27,772.txt
0,19,16,19,19,28,18,25,20,20,17,21,26,6,28,30,9,7,8,13,24,24,25,25,25,18,19,18,19,21,26,28,28,28,29,29,29,29,29,28,24,29,24,28,28,30,29,29,30,28,30,27,27,27,26,27,773.txt
0,19,16,19,19,28,18,25,20,20,17,21,26,10,5,10,9,7,8,13,6,6,6,6,6,6,6,6,6,6,8,8,8,10,8,8,8,8,8,8,7,8,7,28,8,8,8,8,8,8,30,27,27,27,26,27,775.txt
0,19,17,23,23,30,19,26,20,20,17,21,26,9,26,9,25,5,5,13,26,26,27,26,27,23,26,24,24,25,6,9,9,5,9,9,9,9,9,9,29,9,29,28,9,9,9,9,9,9,9,9,9,9,9,27,777.txt
0,19,16,19,19,28,18,25,20,20,17,23,26,10,26,25,9,7,8,13,24,24,25,25,25,18,19,18,19,21,26,28,28,24,29,29,29,29,29,28,24,29,24,28,28,30,29,29,30,28,30,27,27,27,26,27,779.txt
0,19,16,19,19,28,18,25,20,20,17,21,26,6,5,30,9,7,8,13,24,24,25,25,25,18,19,18,19,21,26,28,28,24,29,29,29,29,29,28,24,29,24,6,28,30,29,29,30,28,30,27,27,27,26,27,781.txt
0,19,16,19,19,28,18,25,24,23,17,24,9,24,26,25,9,7,8,13,24,24,25,25,25,18,19,18,19,21,26,28,28,24,29,29,29,29,29,28,24,29,24,28,28,30,29,29,30,28,30,27,27,27,26,27,785.txt
0,0,16,10,9,28,18,25,20,20,17,21,26,10,26,10,9,11,23,27,6,6,6,6,6,6,6,6,6,6,8,8,8,10,8,8,8,8,8,8,7,8,7,21,8,8,8,8,8,8,30,27,27,27,26,21,787.txt
0,11,16,3,2,7,9,2,2,2,4,9,1,1,26,1,1,1,1,1,16,16,16,16,2,1,1,1,1,1,1,1,1,24,1,1,1,1,1,1,26,29,26,27,29,1,30,30,1,29,1,1,1,1,1,1,790.txt
0,19,16,19,19,28,18,25,20,20,17,21,26,12,26,25,9,7,8,13,24,24,25,25,25,18,19,18,19,21,26,28,28,24,29,29,29,29,29,28,24,29,24,9,28,30,29,29,30,28,30,27,27,27,26,8,792.txt
0,19,16,19,19,28,18,25,20,20,17,21,26,12,26,10,9,7,8,13,6,6,6,6,6,6,6,6,6,6,8,8,8,10,8,8,8,8,8,8,7,8,7,28,8,8,8,8,8,8,30,27,27,27,26,27,796.txt
0,19,16,19,19,28,18,25,24,23,17,19,9,10,26,25,9,7,8,13,24,24,25,25,25,18,19,18,19,21,26,28,28,24,29,29,29,29,29,28,24,29,24,28,28,30,29,29,30,28,30,27,27,27,26,27,800.txt
0,19,16,19,19,28,18,25,20,20,17,21,26,24,26,25,9,7,8,13,24,24,25,25,25,18,19,18,19,21,26,28,28,24,29,29,29,29,29,28,24,29,24,28,28,30,29,29,30,28,30,27,27,27,26,27,802.txt
29,30,19,24,24,28,18,25,20,20,25,26,26,12,5,25,20,22,21,26,23,23,24,24,24,22,25,25,25,26,28,27,27,23,28,28,28,28,28,27,28,28,28,29,30,29,28,24,29,27,11,30,27,29,29,8,806.txt
0,19,16,19,19,28,18,25,20,20,17,21,26,10,26,10,9,7,8,13,6,6,6,6,6,6,6,6,6,6,8,8,8,10,8,8,8,8,8,8,7,8,7,28,8,8,8,8,8,8,30,27,27,27,26,27,807.txt
0,0,16,10,9,28,18,25,20,20,17,21,26,10,5,10,9,7,8,13,6,6,6,6,6,6,6,6,6,6,8,8,8,10,8,8,8,8,8,8,7,8,7,21,8,8,8,8,8,8,30,27,27,27,26,21,810.txt
0,19,16,19,19,28,18,25,20,20,17,21,26,6,26,30,9,7,8,13,24,24,25,25,25,18,19,18,19,21,26,28,28,17,29,29,29,29,29,28,24,29,24,28,28,30,29,29,30,28,30,27,27,27,26,27,813.txt
29,12,30,4,4,11,13,7,6,4,3,2,2,2,16,2,2,2,2,2,4,4,4,4,1,2,2,2,2,27,2,2,2,23,2,2,2,2,2,2,26,1,26,27,2,2,2,2,2,2,2,2,2,2,2,2,816.txt
0,19,16,19,19,28,18,25,20,20,17,26,26,10,26,25,9,7,8,13,24,24,25,25,25,18,19,18,19,21,26,28,28,2,29,29,29,29,29,28,24,20,24,10,28,30,29,29,30,28,28,30,27,29,29,8,817.txt
0,23,16,19,19,25,27,22,20,20,14,26,26,10,26,25,22,7,8,13,24,24,20,21,23,18,19,18,19,21,26,28,28,25,29,29,29,29,29,28,24,29,24,28,28,30,29,29,30,28,28,30,27,29,29,27,818.txt
0,19,16,19,19,28,18,25,20,20,8,21,26,10,5,25,9,7,8,5,23,23,25,25,25,18,19,18,19,21,26,28,28,28,29,29,29,29,29,28,24,20,24,6,28,30,29,24,30,28,30,27,27,27,26,27,821.txt
0,19,16,19,19,28,18,25,7,7,17,5,6,10,11,10,9,7,8,13,6,6,6,6,6,6,6,6,6,6,8,8,8,10,8,8,8,8,8,8,7,8,7,10,8,8,8,8,8,8,25,27,27,27,26,8,824.txt
0,19,16,19,19,28,18,25,24,23,17,19,9,6,5,30,9,7,8,13,24,24,25,25,25,18,19,18,19,21,26,28,28,24,29,29,29,29,29,28,24,29,24,6,28,30,29,29,30,28,28,30,27,29,29,27,827.txt
0,12,16,4,2,11,13,2,2,2,4,9,1,1,5,1,1,1,1,1,16,16,16,16,2,1,1,1,1,1,1,1,1,24,1,1,1,1,1,1,26,29,26,27,29,1,30,30,1,29,1,1,1,1,1,1,831.txt
0,19,16,19,19,28,18,25,20,20,17,21,26,6,26,30,9,7,8,13,23,23,25,25,25,18,19,18,19,21,26,28,28,24,29,29,29,29,29,28,24,29,24,28,28,30,29,24,30,28,30,27,27,27,26,27,832.txt
0,19,17,23,23,30,19,26,20,20,17,21,26,9,5,9,25,5,5,13,26,26,27,26,27,23,26,24,24,25,6,9,9,5,9,9,9,9,9,9,29,9,29,28,9,9,9,9,9,9,9,9,9,9,9,27,834.txt
27,29,19,24,24,28,18,25,20,20,27,21,26,20,26,19,20,22,21,26,23,23,24,24,24,22,25,25,25,26,28,27,27,23,28,28,28,28,28,27,28,28,28,28,30,29,28,24,29,27,30,27,27,27,26,26,836.txt
0,19,16,19,19,25,27,22,20,20,28,21,26,10,26,25,9,7,8,13,24,24,25,25,25,18,19,18,19,21,26,28,28,24,29,29,29,29,29,28,24,29,24,28,28,30,29,29,30,28,30,27,27,27,26,27,839.txt
0,11,16,3,2,7,9,2,2,2,4,9,1,1,26,1,1,1,1,1,16,16,16,16,2,1,1,1,1,1,1,1,1,24,1,1,1,1,1,1,26,29,26,27,29,1,30,30,1,29,1,1,1,1,1,1,842.txt
0,19,16,19,19,28,18,25,24,23,0,19,22,6,5,30,9,29,11,28,24,24,25,25,25,18,19,18,19,21,26,28,28,17,29,29,29,29,29,28,24,29,24,28,28,30,29,29,30,28,30,27,27,27,26,27,847.txt
0,19,25,17,17,20,22,11,14,14,12,15,14,24,26,27,12,29,11,28,24,24,25,25,25,18,19,18,19,21,26,28,28,24,29,29,29,29,29,28,24,29,24,28,28,30,29,29,30,28,14,13,13,13,13,27,851.txt
0,19,16,19,19,28,18,25,20,20,17,21,26,10,11,25,9,7,8,13,24,24,25,25,25,18,19,18,19,21,26,28,28,24,29,29,29,29,29,28,24,29,24,9,28,30,29,29,30,28,30,27,27,27,26,29,852.txt
0,19,16,19,19,25,27,22,20,20,14,21,26,10,5,25,22,7,8,13,24,24,25,25,25,18,19,18,19,21,26,28,28,24,29,29,29,29,29,28,24,29,24,9,28,30,29,29,30,28,28,30,27,29,29,9,855.txt
29,29,19,13,12,28,18,25,7,7,27,5,6,12,30,10,20,22,21,26,6,6,6,6,6,6,6,6,6,6,8,8,8,10,8,8,8,8,8,8,7,8,7,28,8,8,8,8,8,8,25,27,27,27,26,26,857.txt
0,19,16,19,19,28,18,25,20,20,17,21,26,6,26,30,9,7,8,13,6,6,6,6,6,6,6,6,6,6,8,8,8,10,8,8,8,8,8,8,7,8,7,28,8,8,8,8,8,8,30,27,27,27,26,27,859.txt
0,19,16,19,19,28,18,25,20,20,17,21,26,10,26,25,9,7,8,13,24,24,25,25,25,18,19,18,19,21,26,28,28,24,29,29,29,29,29,28,24,29,24,28,28,30,29,29,30,28,30,27,27,27,26,27,861.txt
27,29,19,24,24,28,18,25,20,20,27,21,26,23,19,25,20,22,21,26,23,23,24,24,24,22,25,25,25,26,28,27,27,23,28,28,28,28,28,27,28,28,28,29,30,29,28,24,29,27,30,27,27,27,26,29,864.txt
0,19,11,6,5,30,19,26,20,20,17,21,26,9,5,9,25,5,5,13,26,26,27,26,27,8,5,5,5,5,10,6,6,11,6,6,6,6,6,6,6,6,6,9,6,7,6,6,6,6,6,6,6,6,6,9,866.txt
0,19,16,19,19,28,18,25,11,11,17,13,10,6,26,30,9,7,8,13,24,24,25,25,25,18,19,18,19,21,26,28,28,24,29,29,29,29,29,28,24,29,24,28,28,30,29,29,30,28,30,27,27,27,26,27,868.txt
0,19,16,19,19,28,18,25,20,20,17,21,26,6,26,30,9,7,8,13,23,23,25,25,25,18,19,18,19,21,26,28,28,24,29,29,29,29,29,28,24,29,24,28,28,30,29,24,30,28,30,27,27,27,26,27,870.txt
0,19,16,19,19,28,18,25,7,7,17,5,6,10,26,10,9,7,8,13,6,6,6,6,6,6,6,6,6,6,8,8,8,10,8,8,8,8,8,8,7,8,7,28,8,5,8,8,8,8,25,27,27,27,26,27,872.txt
0,0,25,17,17,20,22,11,20,20,12,21,14,10,9,25,12,13,13,11,12,12,13,13,14,13,14,13,13,10,11,17,17,24,17,17,17,17,17,18,16,27,18,9,23,22,22,28,24,23,14,13,13,13,13,9,874.txt
0,19,16,19,19,28,18,25,20,20,17,21,26,10,5,25,9,7,8,13,24,24,25,25,25,18,19,18,19,21,26,28,28,17,29,29,29,29,29,28,24,29,24,28,28,30,29,29,30,28,30,27,27,27,26,27,879.txt
0,19,16,19,19,25,27,21,24,23,14,24,9,6,5,30,9,7,8,5,24,24,25,25,25,18,19,18,19,21,26,28,28,24,29,29,29,29,29,28,24,29,24,28,28,30,29,29,30,28,28,30,27,29,29,27,882.txt
0,19,16,19,19,25,27,21,20,20,14,21,26,10,26,25,9,7,8,13,24,24,25,25,25,18,19,18,19,21,26,28,28,24,29,29,29,29,29,28,24,29,24,9,28,30,29,29,30,28,30,27,27,27,26,9,884.txt
0,19,16,19,19,28,18,25,20,20,17,21,21,10,26,10,9,7,8,28,6,6,6,6,6,6,6,6,6,6,8,8,8,10,8,8,8,8,8,8,7,8,7,28,8,8,8,8,8,8,30,27,27,27,26,27,885.txt
0,19,16,19,19,28,18,25,20,20,17,21,26,10,26,25,9,7,8,13,24,24,25,25,25,18,19,18,19,21,26,28,28,24,29,29,29,29,29,28,24,29,24,28,28,30,29,29,30,28,30,27,27,27,26,27,886.txt
0,19,16,19,19,28,18,25,20,20,17,21,26,10,26,25,9,7,8,13,24,24,25,25,25,18,19,18,19,21,26,28,28,24,29,29,29,29,29,28,24,29,24,28,28,30,29,29,30,28,30,27,27,27,26,27,889.txt
29,29,19,29,12,28,18,25,20,20,27,21,26,28,19,25,20,22,21,26,23,23,24,24,24,22,25,25,25,26,28,27,27,23,28,28,28,28,28,27,28,28,28,28,30,29,28,24,29,27,30,27,27,27,26,26,891.txt
0,0,16,10,9,28,18,25,20,20,17,21,26,6,5,30,9,7,8,13,6,6,6,6,6,6,6,6,6,6,8,8,8,10,8,8,8,8,8,8,7,8,7,21,8,8,8,8,8,8,30,27,27,27,26,21,893.txt
0,0,16,10,9,28,18,25,20,20,17,21,26,12,9,10,9,7,8,13,6,6,6,6,6,6,6,6,6,6,8,8,8,10,8,8,8,8,8,8,7,8,7,9,8,8,8,8,8,8,30,27,27,27,26,29,896.txt
0,11,16,3,2,7,9,2,2,2,4,9,1,1,5,1,1,1,1,1,16,16,16,16,2,1,1,1,1,1,1,1,1,10,1,1,1,1,1,1,26,8,26,27,29,1,30,30,1,29,1,1,1,1,1,1,900.txt
0,11,16,3,2,7,9,2,2,2,4,9,1,1,26,1,1,1,1,1,16,16,16,16,2,1,1,1,1,1,1,1,1,24,1,1,1,1,1,1,26,29,26,27,29,1,30,30,1,29,1,1,1,1,1,1,902.txt
29,23,4,21,21,29,28,22,27,28,30,19,23,28,8,26,20,29,24,28,24,24,29,30,29,28,25,30,30,26,28,27,27,4,28,28,28,28,28,27,28,7,28,29,30,29,28,29,29,27,28,30,27,29,29,29,905.txt
0,19,16,19,19,28,18,25,20,20,17,21,26,10,5,25,9,7,8,13,24,24,25,25,25,18,19,18,19,21,26,28,28,24,29,29,29,29,29,28,24,29,24,28,28,30,29,29,30,28,28,30,27,29,29,27,907.txt
0,19,16,19,19,25,27,22,24,23,16,10,22,6,28,30,9,29,11,28,24,24,25,25,25,18,19,18,19,21,26,28,28,24,29,29,29,29,29,28,24,29,24,28,28,30,29,29,30,28,28,30,27,29,29,27,909.txt
0,0,16,10,9,28,18,25,20,20,17,21,26,10,26,10,9,7,8,13,6,6,6,6,6,6,6,6,6,6,8,8,8,10,8,8,8,8,8,8,7,8,7,10,8,8,8,8,8,8,30,27,27,27,26,29,911.txt
0,19,16,19,19,28,18,25,24,23,16,10,22,6,5,30,9,29,11,28,6,6,6,6,6,6,6,6,6,6,8,8,8,10,8,8,8,8,8,8,7,8,7,28,8,8,8,8,8,8,30,27,27,27,26,27,914.txt
0,19,16,19,19,28,18,25,24,23,14,19,9,6,4,30,9,7,8,13,24,24,25,25,25,18,19,18,19,21,26,28,28,24,29,29,29,29,29,28,24,4,24,28,28,30,29,29,30,28,30,27,27,27,26,27,917.txt
0,11,16,3,2,7,9,2,2,2,4,9,1,1,5,1,1,1,1,1,16,16,16,16,2,1,1,1,1,1,1,1,1,10,1,1,1,1,1,1,26,8,26,27,29,1,30,30,1,29,1,1,1,1,1,1,922.txt
0,19,16,19,19,25,27,22,29,29,28,26,26,10,26,25,22,7,8,13,24,24,25,25,25,18,19,18,19,21,26,28,28,24,29,29,29,29,29,28,24,29,24,28,28,30,29,29,30,28,28,30,27,29,29,27,924.txt
0,19,16,19,19,16,18,14,20,20,17,21,26,6,5,30,9,7,8,13,6,6,6,6,6,6,6,6,6,6,8,8,8,1,8,8,8,8,8,8,7,8,7,28,8,8,8,8,8,8,30,27,27,27,26,27,925.txt
0,19,16,19,19,28,18,25,20,20,17,21,26,12,26,25,9,7,8,13,24,24,25,25,25,18,19,18,19,21,26,28,28,24,29,29,29,29,29,28,24,29,24,28,28,30,29,29,30,28,30,27,27,27,26,27,926.txt
0,19,16,19,19,28,18,25,20,20,17,21,26,10,26,25,9,7,8,13,24,24,25,25,25,18,19,18,19,21,26,28,28,24,29,29,29,29,29,28,24,29,24,28,28,30,29,29,30,28,30,27,27,27,26,27,928.txt
0,19,16,19,19,25,27,22,29,29,14,21,26,6,26,30,9,7,8,13,24,24,25,25,25,18,19,18,19,21,26,28,28,24,29,29,29,29,29,28,24,29,24,28,28,30,29,29,30,28,30,27,27,27,26,27,930.txt
0,19,16,19,19,28,18,25,20,20,17,21,26,10,26,25,9,7,8,13,23,23,25,25,25,18,19,18,19,21,26,28,28,24,29,29,29,29,29,28,24,29,24,9,28,30,29,24,30,28,28,30,27,29,29,9,932.txt
0,23,16,19,19,25,27,27,14,14,14,13,26,10,16,25,22,7,8,13,28,28,25,25,25,18,19,18,19,21,26,28,28,25,29,29,29,29,29,28,24,1,24,9,28,30,29,24,30,28,28,30,27,29,29,9,935.txt
0,19,11,6,5,30,19,26,20,20,17,21,26,9,11,9,25,5,5,13,26,26,27,26,27,8,5,5,5,5,10,6,6,5,6,6,6,6,6,6,6,6,6,6,6,7,6,6,6,6,6,6,6,6,6,27,940.txt
0,19,16,19,19,25,27,22,28,7,26,5,6,21,12,30,22,7,8,13,6,6,6,6,6,6,6,6,6,6,8,8,8,10,8,8,8,8,8,8,7,8,7,28,8,14,8,13,8,13,28,30,27,29,29,27,942.txt
8,8,14,27,30,14,16,30,18,19,23,7,9,6,28,7,8,30,11,25,25,25,25,25,25,19,20,19,20,14,18,24,26,24,30,30,30,30,30,30,23,30,23,30,27,28,27,27,28,30,28,30,27,29,29,30,944.txt
0,19,16,19,19,28,18,25,20,20,17,21,26,6,26,30,9,7,8,13,24,24,25,25,25,18,19,18,19,21,26,28,28,24,29,29,29,29,29,28,24,29,24,28,28,30,29,29,30,28,30,27,27,27,26,27,946.txt
0,19,16,19,19,28,18,25,20,20,17,21,26,10,26,10,9,7,8,13,6,6,6,6,6,6,6,6,6,6,8,8,8,10,8,8,8,8,8,8,7,8,7,28,8,8,8,8,8,8,30,27,27,27,26,27,949.txt
0,0,16,10,9,28,18,25,20,20,17,21,26,6,9,30,9,7,8,13,6,6,6,6,6,6,6,6,6,6,8,8,8,10,8,8,8,8,8,8,7,8,7,21,8,8,8,8,8,8,30,27,27,27,26,21,951.txt
0,19,25,17,17,20,22,11,20,20,14,21,14,10,11,25,12,13,13,11,24,24,25,25,25,18,19,18,19,21,26,28,28,24,29,29,29,29,29,28,24,29,24,9,28,30,29,29,30,28,14,13,13,13,13,8,954.txt
0,19,16,19,19,28,18,25,20,20,16,21,26,6,5,30,9,29,11,28,24,24,25,25,25,18,19,18,19,21,26,28,28,24,29,29,29,29,29,28,24,20,24,6,28,30,29,29,30,28,30,27,27,27,26,27,956.txt
0,12,16,4,25,11,13,28,26,27,4,2,2,2,5,2,2,2,2,2,16,16,28,29,28,2,2,2,2,27,2,2,2,24,2,2,2,2,2,2,26,29,26,27,2,2,2,2,2,2,2,2,2,2,2,2,959.txt
0,19,16,19,19,28,18,25,20,20,17,21,26,10,26,25,9,7,8,13,23,23,25,25,25,18,19,18,19,21,26,28,28,24,29,29,29,29,29,28,24,29,24,28,28,30,29,24,30,28,30,27,27,27,26,27,961.txt
0,19,16,19,19,28,18,25,20,20,17,21,26,6,26,30,9,7,8,13,24,24,25,25,25,18,19,18,19,21,26,28,28,24,29,29,29,29,29,28,24,29,24,28,28,30,29,29,30,28,30,27,27,27,26,27,962.txt
0,19,25,17,17,20,22,11,20,20,12,21,14,10,26,25,12,13,13,11,12,12,25,25,25,13,14,13,13,10,11,17,17,24,17,17,17,17,17,18,16,27,18,9,23,22,22,28,24,23,14,13,13,13,13,29,964.txt
0,19,16,19,19,25,27,21,20,20,14,21,26,10,26,27,9,29,11,13,24,24,25,25,25,18,19,18,19,21,26,28,28,24,29,29,29,29,29,28,24,29,24,28,28,30,29,29,30,28,28,30,27,29,29,27,966.txt
0,19,16,19,19,28,18,25,20,20,17,21,26,10,26,25,9,7,8,13,23,23,25,25,25,18,19,18,19,21,26,28,28,24,29,29,29,29,29,28,24,29,24,28,28,30,29,24,30,28,30,27,27,27,26,27,968.txt
0,19,16,19,19,28,18,25,24,23,16,24,9,6,28,30,9,29,11,28,24,24,25,25,25,18,19,18,19,21,26,28,28,24,29,29,29,29,29,28,24,29,24,28,28,30,29,29,30,28,30,27,27,27,26,27,970.txt
0,19,16,19,19,28,18,25,20,20,17,21,26,6,26,30,9,7,8,13,24,24,25,25,25,18,19,18,19,21,26,28,28,24,29,29,29,29,29,28,24,29,24,28,28,30,29,29,30,28,30,27,27,27,26,27,974.txt
0,19,16,19,19,28,18,25,24,23,17,19,9,6,5,30,9,29,11,28,6,6,6,6,6,6,6,6,6,6,8,8,8,10,8,8,8,8,8,8,7,8,7,28,8,8,8,8,8,8,30,27,27,27,26,27,975.txt
0,23,28,19,19,25,27,22,24,23,14,19,23,10,26,27,22,29,24,28,28,28,20,21,23,18,19,18,19,21,26,28,28,25,29,29,29,29,29,28,24,29,24,9,28,30,29,24,30,28,28,30,27,29,29,9,979.txt
0,23,17,23,23,30,19,26,24,23,14,24,23,9,26,9,25,29,24,28,26,26,27,26,27,23,26,24,24,25,6,9,9,11,9,9,9,9,9,9,29,9,29,10,9,9,9,9,9,9,9,9,9,9,9,29,981.txt
0,0,16,10,9,28,18,25,20,20,17,21,26,6,9,30,9,7,8,13,6,6,6,6,6,6,6,6,6,6,8,8,8,10,8,8,8,8,8,8,7,8,7,21,8,8,8,8,8,8,30,27,27,27,26,21,987.txt
0,19,17,23,23,18,20,16,20,20,17,21,26,9,26,9,11,5,5,13,8,8,8,8,8,23,26,24,24,25,6,9,9,11,9,9,9,9,9,9,29,9,29,9,9,9,9,9,9,9,9,9,9,9,9,29,989.txt
0,12,16,4,2,11,13,2,2,2,4,9,1,1,16,1,30,1,1,1,16,16,16,16,2,24,27,26,27,29,1,1,1,24,1,1,1,1,1,1,26,1,26,27,29,1,30,30,1,29,1,1,1,1,1,1,994.txt
0,0,16,10,9,28,18,25,20,20,17,21,26,10,9,10,9,7,8,13,6,6,6,6,6,6,6,6,6,6,8,8,8,10,8,8,8,8,8,8,7,8,7,21,8,8,8,8,8,8,30,27,27,27,26,21,996.txt
0,19,16,19,19,28,18,25,20,20,17,21,26,10,5,10,9,7,8,13,6,6,6,6,6,6,6,6,6,6,8,8,8,10,8,8,8,8,8,8,7,8,7,28,8,8,8,8,8,8,30,27,27,27,26,27,998.txt
0,19,16,19,19,25,27,22,24,23,14,19,9,10,26,26,9,7,8,28,24,24,25,25,25,18,19,18,19,21,26,28,28,24,29,29,29,29,29,28,24,29,24,28,28,30,29,29,30,28,30,27,27,27,26,27,1002.txt
0,19,16,19,19,28,18,25,24,23,14,10,9,6,26,30,9,7,8,13,23,23,25,25,25,18,19,18,19,21,26,28,28,24,29,29,29,29,29,28,24,29,24,28,28,30,29,24,30,28,30,27,27,27,26,27,1005.txt
0,19,16,19,19,28,18,25,20,20,17,21,26,6,26,30,9,7,8,28,28,28,25,25,25,18,19,18,19,21,26,28,28,24,29,29,29,29,29,28,24,29,24,28,28,30,29,24,30,28,30,27,27,27,26,27,1008.txt
29,27,30,25,2,11,13,2,2,2,4,2,2,2,5,2,2,2,2,2,16,16,16,16,2,2,2,2,2,27,2,2,2,23,2,2,2,2,2,2,26,28,26,27,2,2,2,2,2,2,2,2,2,2,2,2,1010.txt
0,19,16,19,19,28,18,25,11,11,14,13,10,6,26,30,9,7,8,13,24,24,25,25,25,18,19,18,19,21,26,28,28,24,29,29,29,29,29,28,24,29,24,28,28,30,29,29,30,28,28,30,27,29,29,27,1013.txt
0,19,16,19,19,28,18,25,29,29,14,21,26,10,26,25,9,7,8,13,24,24,25,25,25,18,19,18,19,21,26,28,28,24,29,29,29,29,29,28,24,29,24,28,28,30,29,29,30,28,28,30,27,29,29,27,1015.txt
0,23,28,19,19,25,27,21,24,23,14,24,9,10,26,27,22,29,11,28,24,24,25,25,25,18,19,18,19,21,26,28,28,25,29,29,29,29,29,28,24,29,24,28,28,30,29,29,30,28,28,30,27,29,29,27,1018.txt
29,27,3,28,4,11,13,7,6,4,3,28,28,26,2,1,1,1,1,1,4,4,4,4,1,1,1,1,1,1,1,1,1,3,1,1,1,1,1,1,26,2,26,27,29,1,30,30,1,29,1,1,1,1,1,1,1020.txt
0,23,17,23,23,30,19,26,11,11,14,13,10,9,26,9,25,5,5,13,26,26,27,26,27,23,26,24,24,25,6,9,9,11,9,9,9,9,9,9,29,9,29,9,9,9,9,9,9,9,9,9,9,9,9,9,1022.txt
0,23,16,19,19,28,18,25,20,20,14,21,26,10,26,27,9,29,11,28,24,24,25,25,25,18,19,18,19,21,26,28,28,24,29,29,29,29,29,28,24,29,24,28,28,30,29,29,30,28,30,27,27,27,26,27,1025.txt
29,26,30,21,21,28,18,25,22,21,27,24,9,20,5,19,20,29,11,28,28,28,24,24,24,22,25,25,25,26,28,27,27,23,28,28,28,28,28,27,28,28,28,6,30,29,28,24,29,27,28,30,27,29,29,26,1027.txt
0,19,16,19,19,25,27,22,11,11,14,13,10,27,26,30,9,7,8,13,24,24,25,25,25,18,19,18,19,21,26,28,28,2,29,29,29,29,29,28,24,20,24,28,28,30,29,29,30,28,28,30,27,29,29,27,1030.txt
0,19,16,19,19,25,27,21,20,20,28,21,26,10,26,27,22,29,11,28,24,24,25,25,25,18,19,18,19,21,26,28,28,24,29,29,29,29,29,28,24,29,24,28,28,30,29,29,30,28,28,30,27,29,29,27,1036.txt
0,19,16,19,19,28,18,25,20,20,17,13,26,6,5,30,9,29,23,28,24,24,25,25,25,18,19,18,19,21,26,28,28,24,29,29,29,29,29,28,24,29,24,28,28,30,29,29,30,28,30,27,27,27,26,27,1041.txt
0,19,16,19,19,28,18,25,14,14,14,15,26,10,26,25,9,7,8,13,24,24,25,25,25,18,19,18,19,21,26,28,28,24,29,29,29,29,29,28,24,29,24,28,28,30,29,29,30,28,30,27,27,27,26,27,1043.txt
0,19,16,19,19,28,18,25,20,20,17,21,26,10,26,25,9,7,8,28,24,24,25,25,25,18,19,18,19,21,26,28,28,24,29,29,29,29,29,28,24,29,24,28,28,30,29,29,30,28,30,27,27,27,26,27,1045.txt
0,19,16,19,19,28,18,25,20,20,17,21,26,6,26,30,9,7,8,13,6,6,6,6,6,6,6,6,6,6,8,8,8,10,8,8,8,8,8,8,7,8,7,28,8,8,8,8,8,8,30,27,27,27,26,27,1046.txt
29,23,30,21,21,29,28,27,24,23,14,19,9,20,26,19,20,22,21,28,24,24,29,30,29,28,25,30,30,26,28,27,27,23,28,28,28,28,28,27,28,28,28,28,30,29,28,29,29,27,28,30,27,29,29,26,1048.txt
0,19,16,19,19,25,27,22,20,20,14,21,26,6,26,30,22,7,8,28,24,24,25,25,25,18,19,18,19,21,26,28,28,24,29,29,29,29,29,28,24,29,24,28,28,30,29,29,30,28,28,30,27,29,29,27,1051.txt
0,19,16,19,19,28,18,25,20,20,17,21,26,10,26,25,9,7,8,13,24,24,25,25,25,18,19,18,19,21,26,28,28,24,29,29,29,29,29,28,24,29,24,28,28,30,29,29,30,28,30,27,27,27,26,27,1054.txt
0,28,14,8,8,14,16,29,30,30,23,19,23,29,28,20,22,30,11,25,25,25,20,21,23,19,20,19,20,24,27,24,26,25,30,30,30,30,30,30,23,30,23,30,27,28,27,27,28,30,28,30,27,29,29,30,1057.txt
0,19,16,19,19,28,18,25,20,20,17,21,26,10,26,25,9,7,8,13,24,24,25,25,25,18,19,18,19,21,26,28,28,1,29,29,29,29,29,28,24,29,24,9,28,30,29,29,30,28,30,27,27,27,26,9,1059.txt
0,19,16,19,19,28,18,25,20,20,17,21,26,6,5,30,9,7,8,13,24,24,25,25,25,18,19,18,19,21,26,28,28,24,29,29,29,29,29,28,24,29,24,28,28,30,29,29,30,28,30,27,27,27,26,27,1060.txt
0,19,16,19,19,25,27,27,29,29,14,26,26,10,26,25,22,7,8,13,24,24,25,25,25,18,19,18,19,21,26,28,28,24,29,29,29,29,29,28,24,29,24,28,28,30,29,29,30,28,28,30,27,29,29,27,1064.txt
0,19,16,19,19,28,18,25,11,11,17,13,10,6,26,30,9,29,23,28,24,24,25,25,25,18,19,18,19,21,26,28,28,24,29,29,29,29,29,28,24,29,24,28,28,30,29,29,30,28,30,27,27,27,26,27,1069.txt
0,19,16,19,19,25,27,22,29,29,14,26,26,6,26,20,22,29,11,28,24,24,25,25,25,18,19,18,19,21,26,28,28,24,29,29,29,29,29,28,24,29,24,28,28,30,29,29,30,28,28,30,27,29,29,27,1071.txt
0,19,16,19,19,25,27,22,24,23,17,19,9,6,26,30,9,7,8,8,24,24,25,25,25,18,19,18,19,21,26,28,28,24,29,29,29,29,29,28,24,29,24,28,28,30,29,29,30,28,30,27,27,27,26,27,1073.txt
0,19,17,23,23,30,19,26,24,23,14,19,23,29,29,20,25,29,11,28,26,26,27,26,27,23,26,24,24,25,6,9,9,28,9,9,9,9,9,9,29,9,29,28,9,9,9,9,9,9,11,9,9,9,9,27,1075.txt
0,0,16,10,9,28,18,25,20,20,17,21,26,10,9,25,9,7,8,13,12,12,13,13,14,13,14,13,13,10,11,17,17,24,17,17,17,17,17,18,16,27,18,21,23,22,22,28,24,23,30,27,27,27,26,21,1076.txt
0,19,16,19,19,28,18,25,20,20,17,21,26,12,5,10,9,7,8,13,6,6,6,6,6,6,6,6,6,6,8,8,8,10,8,8,8,8,8,8,7,8,7,28,8,8,8,8,8,8,30,27,27,27,26,27,1078.txt
0,19,16,19,19,28,18,25,29,29,17,21,26,6,5,30,9,7,8,13,23,23,25,25,25,18,19,18,19,21,26,28,28,24,29,29,29,29,29,28,24,29,24,28,28,30,29,24,30,28,30,27,27,27,26,27,1080.txt
0,19,25,17,17,20,22,11,14,14,14,15,14,10,26,25,12,13,13,11,24,24,25,25,25,18,19,18,19,21,26,28,28,28,29,29,29,29,29,28,24,29,24,9,28,30,29,29,30,28,14,13,13,13,13,29,1082.txt
0,19,17,23,23,30,19,26,24,23,17,19,22,6,26,30,25,29,11,28,26,26,27,26,27,23,26,24,24,25,6,9,9,5,9,9,9,9,9,9,29,9,29,28,9,9,9,9,9,9,9,9,9,9,9,27,1084.txt
29,26,30,22,22,26,28,22,20,20,28,26,26,28,19,26,20,29,11,28,30,23,24,24,24,22,25,25,25,26,28,27,27,23,28,28,28,28,28,27,28,28,28,29,30,29,28,24,29,27,28,30,27,29,29,9,1086.txt
0,19,16,19,19,28,18,25,20,20,17,21,21,24,26,10,9,29,11,28,6,6,6,6,6,6,6,6,6,6,8,8,8,28,8,8,8,8,8,8,7,8,7,28,8,8,8,8,8,8,11,27,27,27,26,27,1088.txt
0,19,16,19,19,25,27,21,20,20,17,21,26,10,26,25,9,7,8,13,30,23,25,25,25,18,19,18,19,21,26,28,28,24,29,29,29,29,29,28,24,29,24,28,28,30,29,24,30,28,28,30,27,29,29,27,1090.txt
29,24,17,23,23,13,15,8,20,20,27,21,26,9,26,9,11,5,5,26,8,8,8,8,8,23,26,24,24,25,6,9,9,11,9,9,9,9,9,9,29,9,29,9,9,9,9,9,9,9,9,9,9,9,9,8,1093.txt
0,19,16,19,19,28,18,25,24,23,17,24,9,6,26,30,9,29,11,28,24,24,25,25,25,18,19,18,19,21,26,28,28,24,29,29,29,29,29,28,24,29,24,28,28,30,29,29,30,28,30,27,27,27,26,27,1094.txt
0,19,17,23,23,30,19,26,20,20,28,26,26,9,26,9,25,5,5,13,26,26,27,26,27,23,26,24,24,25,6,9,9,11,9,9,9,9,9,9,29,9,29,9,9,9,9,9,9,9,9,9,9,9,9,8,1096.txt
0,11,16,3,2,7,9,2,2,2,4,9,1,1,5,1,1,1,1,1,16,16,16,16,2,1,1,1,1,1,1,1,1,10,1,1,1,1,1,1,26,8,26,27,29,1,30,30,1,29,1,1,1,1,1,1,1101.txt
0,19,16,19,19,25,27,22,14,14,14,15,26,10,26,27,22,29,11,28,24,24,25,25,25,18,19,18,19,21,26,28,28,25,29,29,29,29,29,28,24,29,24,28,28,30,29,29,30,28,28,30,27,29,29,27,1105.txt
0,19,16,19,19,25,27,22,20,20,14,21,26,10,23,25,22,7,8,13,24,24,25,25,25,18,19,18,19,21,26,28,28,25,29,29,29,29,29,28,24,29,24,28,28,30,29,29,30,28,28,30,27,29,29,27,1106.txt
29,26,30,24,24,26,28,21,29,29,14,21,26,10,26,25,20,22,21,26,23,23,24,24,24,22,25,25,25,26,28,27,27,4,28,28,28,28,28,27,28,28,28,29,30,29,28,24,29,27,28,30,27,29,29,9,1108.txt
29,29,19,29,12,28,18,25,20,20,27,21,26,20,30,19,20,22,21,26,6,6,6,6,6,6,6,6,6,6,8,8,8,10,8,8,8,8,8,8,7,8,7,28,8,8,8,8,8,8,30,21,23,21,20,26,1109.txt
0,19,16,10,9,28,18,25,20,20,17,21,26,6,9,30,9,7,8,27,6,6,6,6,6,6,6,6,6,6,8,8,8,10,8,8,8,8,8,8,7,8,7,21,8,8,8,8,8,8,30,27,27,27,26,21,1114.txt
0,19,16,19,19,25,27,22,29,29,14,21,26,10,26,25,22,7,8,13,24,24,25,25,25,18,19,18,19,21,26,28,28,24,29,29,29,29,29,28,24,29,24,28,28,30,29,29,30,28,28,30,27,29,29,27,1117.txt
0,19,18,12,11,30,19,26,20,20,17,21,26,9,5,9,25,29,11,28,26,26,27,26,27,23,8,8,8,8,6,10,6,5,10,10,10,10,10,10,6,6,6,6,6,7,6,6,6,6,10,6,6,6,6,27,1118.txt
29,19,16,19,19,25,27,21,20,20,17,21,26,10,5,23,20,7,8,13,6,6,6,6,6,6,6,6,6,6,8,8,8,10,8,8,8,8,8,8,7,8,7,28,8,8,8,8,8,8,30,27,27,27,26,27,1121.txt
0,19,16,19,19,28,18,25,24,23,17,24,9,6,26,30,9,29,11,28,24,24,25,25,25,18,19,18,19,21,26,28,28,24,29,29,29,29,29,28,24,29,24,28,28,30,29,29,30,28,11,27,27,27,26,27,1122.txt
0,19,16,19,19,28,18,25,20,20,17,21,26,10,26,27,9,29,11,28,24,24,25,25,25,18,19,18,19,21,26,28,28,24,29,29,29,29,29,28,24,29,24,28,28,30,29,29,30,28,30,27,27,27,26,27,1124.txt
0,19,16,19,19,28,18,25,20,20,17,23,26,10,26,25,9,7,8,13,24,24,25,25,25,18,19,18,19,21,26,28,28,17,29,29,29,29,29,28,24,29,24,28,28,30,29,29,30,28,30,27,27,27,26,27,1126.txt
29,26,30,21,21,29,28,27,14,14,30,15,26,28,19,25,20,22,21,26,28,28,29,30,29,28,25,30,30,26,28,27,27,23,28,28,28,28,28,27,28,28,28,29,30,29,28,24,29,27,28,30,27,29,29,8,1128.txt
0,19,16,19,19,28,18,25,20,20,17,21,21,24,26,10,9,29,11,28,6,6,6,6,6,6,6,6,6,6,8,8,8,10,8,8,8,8,8,8,7,8,7,28,8,8,8,8,8,8,30,27,27,27,26,27,1130.txt
0,0,16,10,9,28,18,25,20,20,17,23,26,10,9,10,9,7,8,13,6,6,6,6,6,6,6,6,6,6,8,8,8,10,8,8,8,8,8,8,7,8,7,21,8,8,8,8,8,8,30,27,27,27,26,21,1135.txt
0,19,16,19,19,28,18,25,20,20,17,21,26,10,5,25,9,7,8,13,24,24,25,25,25,18,19,18,19,21,26,28,28,24,29,29,29,29,29,28,24,29,24,9,28,30,29,29,30,28,28,30,27,29,29,8,1136.txt
29,29,19,24,24,26,28,21,20,20,27,21,26,10,26,25,20,22,21,26,23,23,24,24,24,22,25,25,25,26,28,27,27,23,28,28,28,28,28,27,28,28,28,28,30,29,28,24,29,27,28,30,27,29,29,26,1137.txt
0,11,16,3,4,7,9,7,6,4,3,9,1,1,26,1,1,1,1,1,4,4,4,4,1,1,1,1,1,1,1,1,1,24,1,1,1,1,1,1,26,29,26,27,29,1,30,30,1,29,1,1,1,1,1,1,1139.txt
0,12,16,4,2,11,13,2,2,2,4,4,4,4,26,4,4,4,3,4,16,16,16,16,2,2,2,2,2,27,4,4,4,24,3,3,3,3,3,4,26,29,26,27,3,3,3,3,3,4,3,3,3,3,4,4,1141.txt
0,19,16,19,19,25,27,27,14,14,14,15,26,10,26,25,22,7,8,13,28,28,20,21,23,18,19,18,19,21,26,28,28,25,29,29,29,29,29,28,24,29,24,9,28,30,29,24,30,28,28,30,27,29,29,29,1143.txt
0,19,16,19,19,28,18,25,20,20,16,21,26,10,26,25,9,7,8,13,24,24,25,25,25,18,19,18,19,21,26,28,28,24,29,29,29,29,29,28,24,29,24,28,28,30,29,29,30,28,30,27,27,27,26,27,1147.txt
0,19,16,19,19,28,18,25,20,20,8,21,26,10,26,10,9,7,8,5,6,6,6,6,6,6,6,6,6,6,8,8,8,10,8,8,8,8,8,8,7,8,7,28,8,8,8,8,8,8,30,27,27,27,26,27,1149.txt
29,28,14,8,8,14,16,29,30,30,23,19,23,9,24,9,25,29,24,25,26,26,27,26,27,23,26,24,24,25,6,9,9,11,9,9,9,9,9,9,29,9,29,30,9,9,9,9,9,9,9,9,9,9,9,30,1151.txt
0,19,16,19,19,28,18,25,20,20,17,21,26,6,5,30,9,7,8,13,6,6,6,6,6,6,6,6,6,6,8,8,8,1,8,8,8,8,8,8,7,8,7,6,8,8,8,8,8,8,30,27,27,27,26,27,1152.txt
0,19,16,19,19,28,18,25,20,20,17,21,26,10,5,25,9,7,8,13,24,24,25,25,25,18,19,18,19,21,26,28,28,17,29,29,29,29,29,28,24,29,24,28,28,30,29,29,30,28,30,27,27,27,26,27,1156.txt
22,0,19,29,12,28,18,25,20,20,27,21,26,10,26,10,20,29,11,28,6,6,6,6,6,6,6,6,6,6,8,8,8,10,8,8,8,8,8,8,7,8,7,9,8,8,8,8,8,8,30,27,27,27,26,9,1158.txt
0,19,16,19,19,25,27,22,29,29,14,23,26,10,26,25,22,7,8,13,24,24,25,25,25,18,19,18,19,21,26,28,28,25,29,29,29,29,29,28,24,29,24,9,28,30,29,29,30,28,28,30,27,29,29,9,1161.txt
0,19,16,19,19,28,18,25,20,20,17,21,26,10,5,25,9,7,8,13,24,24,25,25,25,18,19,18,19,21,26,28,28,24,29,29,29,29,29,28,24,29,24,6,28,30,29,29,30,28,30,27,27,27,26,27,1166.txt
0,19,16,19,19,28,18,25,20,20,17,21,26,10,26,25,9,7,8,13,23,23,25,25,25,18,19,18,19,21,26,28,28,24,29,29,29,29,29,28,24,29,24,28,28,30,29,24,30,28,28,30,27,29,29,27,1168.txt
29,13,14,5,2,2,29,2,2,2,29,28,28,26,16,1,30,1,1,1,16,16,16,16,2,24,27,26,27,29,1,1,1,13,1,1,1,1,1,1,30,1,30,27,29,1,30,30,1,29,1,1,1,1,1,1,1169.txt
0,19,28,19,19,25,27,22,23,22,14,21,24,29,26,20,22,24,22,30,24,24,20,21,23,18,19,18,19,21,26,28,28,25,29,29,29,29,29,28,24,29,24,28,28,30,29,29,30,28,28,30,27,29,29,27,1171.txt
0,19,16,19,19,28,18,25,20,20,17,21,26,6,26,30,9,29,11,28,24,24,25,25,25,18,19,18,19,21,26,28,28,24,29,29,29,29,29,28,24,29,24,28,28,30,29,29,30,28,30,27,27,27,26,27,1175.txt
0,19,16,19,19,28,18,25,20,20,17,21,26,10,5,10,9,7,8,13,6,6,6,6,6,6,6,6,6,6,8,8,8,10,8,8,8,8,8,8,7,8,7,9,8,8,8,8,8,8,30,27,27,27,26,9,1177.txt
0,12,16,4,4,11,13,7,6,4,3,9,1,1,26,1,1,1,1,1,4,4,4,4,1,1,1,1,1,1,1,1,1,24,1,1,1,1,1,1,26,29,26,27,29,1,30,30,1,29,1,1,1,1,1,1,1179.txt
0,19,16,19,19,25,27,22,13,14,16,15,26,6,5,30,22,7,8,13,24,24,25,25,25,18,19,18,19,21,26,28,28,28,29,29,29,29,29,28,24,20,24,6,28,30,29,29,30,28,28,30,27,29,29,27,1183.txt
0,19,16,19,19,28,18,25,20,20,17,21,26,12,26,25,9,7,8,13,24,24,25,25,25,18,19,18,19,21,26,28,28,24,29,29,29,29,29,28,24,29,24,28,28,30,29,29,30,28,30,27,27,27,26,27,1184.txt
0,19,24,16,16,19,21,11,20,20,12,21,14,10,26,25,12,12,12,11,24,24,25,25,25,18,19,18,19,21,26,28,28,24,29,29,29,29,29,28,24,29,24,28,28,30,29,29,30,28,13,12,12,12,12,27,1190.txt
0,12,16,4,28,11,13,7,6,4,3,9,1,1,5,1,30,1,1,1,4,4,4,4,30,24,27,26,27,29,1,1,1,24,1,1,1,1,1,1,26,29,26,27,29,1,30,30,1,29,1,1,1,1,1,1,1192.txt
0,19,16,19,19,28,18,25,20,20,14,21,26,10,5,25,9,7,8,13,24,24,25,25,25,18,19,18,19,21,26,28,28,24,29,29,29,29,29,28,24,29,24,28,28,30,29,29,30,28,30,27,27,27,26,27,1194.txt
0,19,16,19,19,25,27,22,20,20,17,23,26,12,26,25,9,7,8,13,24,24,25,25,25,18,19,18,19,21,26,28,28,24,29,29,29,29,29,28,24,29,24,28,28,30,29,29,30,28,30,27,27,27,26,27,1196.txt
0,19,16,19,19,28,18,25,20,20,17,21,26,12,26,25,9,7,8,13,23,23,25,25,25,18,19,18,19,21,26,28,28,24,29,29,29,29,29,28,24,29,24,28,28,30,29,24,30,28,28,30,27,29,29,27,1197.txt
29,26,30,21,21,29,28,27,22,21,30,24,9,23,19,25,20,22,21,26,24,24,24,24,24,28,25,30,30,26,28,27,27,23,28,28,28,28,28,27,28,20,28,28,30,29,28,29,29,27,28,30,27,29,29,26,1199.txt
0,19,17,23,23,30,19,26,20,20,14,21,26,9,26,9,25,5,5,13,26,26,27,26,27,23,26,24,24,25,6,9,9,11,9,9,9,9,9,9,29,9,29,9,9,9,9,9,9,9,9,9,9,9,9,9,1201.txt
0,19,16,19,19,25,27,30,24,23,14,7,9,10,28,7,8,30,24,28,24,24,25,25,25,18,19,18,19,14,18,28,28,24,29,29,29,29,29,28,24,29,24,28,28,30,29,29,30,28,28,30,27,29,29,27,1203.txt
0,19,16,19,19,28,18,25,24,23,17,19,22,6,26,30,9,7,8,13,24,24,25,25,25,18,19,18,19,21,26,28,28,24,29,29,29,29,29,28,24,20,24,28,28,30,29,29,30,28,30,27,27,27,26,27,1205.txt
14,30,4,21,21,29,28,22,27,28,16,19,23,28,24,25,20,22,21,28,28,28,29,30,29,28,25,30,30,26,28,27,27,28,28,28,28,28,28,27,28,30,28,29,30,29,28,24,29,27,28,30,27,29,29,9,1207.txt
0,19,16,19,19,25,27,27,14,14,14,15,26,6,26,30,9,7,8,5,28,28,20,21,23,18,19,18,19,21,26,28,28,24,29,29,29,29,29,28,24,29,24,28,28,30,29,24,30,28,30,27,27,27,26,27,1211.txt
0,19,16,19,19,25,27,22,29,29,28,26,26,6,26,30,22,7,8,13,24,24,25,25,25,18,19,18,19,21,26,28,28,24,29,29,29,29,29,28,24,29,24,28,28,30,29,29,30,28,28,30,27,29,29,27,1214.txt
0,23,16,19,19,25,27,22,24,23,14,19,22,29,26,20,22,7,8,28,24,24,25,25,25,18,19,18,19,21,26,28,28,25,29,29,29,29,29,28,24,29,24,28,28,30,29,29,30,28,28,30,27,29,29,27,1216.txt
0,19,16,19,19,28,18,25,20,20,17,21,26,10,26,25,9,7,8,13,24,24,25,25,25,18,19,18,19,21,26,28,28,24,29,29,29,29,29,28,24,29,24,28,28,30,29,29,30,28,30,27,27,27,26,27,1217.txt
0,19,16,19,19,28,18,25,20,20,17,21,26,6,26,30,9,7,8,13,24,24,25,25,25,18,19,18,19,21,26,28,28,24,29,29,29,29,29,28,24,29,24,28,28,30,29,29,30,28,30,27,27,27,26,27,1219.txt
29,16,29,13,12,28,18,25,7,7,27,5,6,23,5,10,20,22,21,26,6,6,6,6,6,6,6,6,6,6,8,8,8,10,8,8,8,8,8,8,7,8,7,29,8,8,8,8,8,8,25,27,27,27,26,9,1221.txt
0,19,16,19,19,28,18,25,20,20,17,23,26,10,26,25,9,7,8,13,23,23,25,25,25,18,19,18,19,21,26,28,28,24,29,29,29,29,29,28,24,29,24,9,28,30,29,24,30,28,28,30,27,29,29,9,1225.txt
0,19,16,19,19,25,27,22,24,23,16,10,22,6,26,30,22,7,8,13,24,24,25,25,25,18,19,18,19,21,26,28,28,24,29,29,29,29,29,28,24,20,24,28,28,30,29,29,30,28,28,30,27,29,29,27,1228.txt
0,19,25,17,17,20,22,11,24,23,14,24,9,10,29,25,12,13,13,8,24,24,25,25,25,18,19,18,19,21,26,28,28,25,29,29,29,29,29,28,24,29,24,28,28,30,29,29,30,28,14,13,13,13,13,27,1230.txt
0,19,16,19,19,28,18,25,24,23,17,24,22,6,26,30,9,7,8,13,24,24,25,25,25,18,19,18,19,21,26,28,28,24,29,29,29,29,29,28,24,29,24,28,28,30,29,29,30,28,30,27,27,27,26,27,1234.txt
0,19,16,19,19,28,18,25,24,23,17,24,9,6,5,30,9,29,11,28,24,24,25,25,25,18,19,18,19,21,26,28,28,24,29,29,29,29,29,28,24,29,24,28,28,30,29,29,30,28,30,27,27,27,26,27,1237.txt
0,19,16,19,19,28,18,25,24,23,17,24,9,6,5,30,9,7,8,28,6,6,6,6,6,6,6,6,6,6,8,8,8,10,8,8,8,8,8,8,7,8,7,28,8,8,8,8,8,8,30,27,27,27,26,27,1239.txt
29,12,4,4,4,11,13,7,6,4,3,2,2,2,8,2,2,2,2,2,4,4,4,4,1,2,2,2,2,27,2,2,2,28,2,2,2,2,2,2,26,7,26,27,2,2,2,2,2,2,2,2,2,2,2,2,1241.txt
29,30,11,6,5,13,15,8,20,20,27,21,26,11,5,11,5,8,9,26,5,5,5,5,5,8,5,5,5,5,10,6,6,21,6,6,6,6,6,6,6,6,6,29,6,7,6,6,6,6,6,6,6,6,6,8,1243.txt
0,19,16,19,19,28,18,25,20,20,17,21,26,10,26,25,9,7,8,13,23,23,25,25,25,18,19,18,19,21,26,28,28,24,29,29,29,29,29,28,24,29,24,9,28,30,29,24,30,28,30,27,27,27,26,9,1245.txt
0,19,16,19,19,28,18,25,20,20,17,21,26,10,5,10,9,7,8,13,6,6,6,6,6,6,6,6,6,6,8,8,8,10,8,8,8,8,8,8,7,8,7,28,8,8,8,8,8,8,30,27,27,27,26,27,1249.txt
0,19,16,19,19,25,27,22,24,23,16,24,9,6,26,20,9,29,11,28,24,24,25,25,25,18,19,18,19,21,26,28,28,24,29,29,29,29,29,28,24,29,24,28,28,30,29,29,30,28,28,30,27,29,29,27,1251.txt
22,29,19,29,12,20,22,11,14,14,14,15,14,10,26,25,12,13,13,11,23,23,24,24,24,22,25,25,25,26,28,27,27,28,28,28,28,28,28,27,28,28,28,9,30,29,28,24,29,27,14,13,13,13,13,29,1254.txt
29,11,19,3,25,7,9,28,26,27,4,9,1,1,11,1,1,1,1,1,16,16,28,29,28,1,1,1,1,1,1,1,1,23,1,1,1,1,1,1,26,28,26,27,29,1,30,30,1,29,1,1,1,1,1,1,1255.txt
29,29,17,23,23,18,20,16,20,20,27,21,26,15,30,11,11,14,14,26,8,8,8,8,8,23,26,24,24,25,6,9,9,21,9,9,9,9,9,9,29,9,29,26,9,9,9,9,9,9,9,9,9,9,9,26,1267.txt
29,29,19,24,24,28,18,25,20,20,27,21,26,10,26,25,20,22,21,26,23,23,24,24,24,22,25,25,25,26,28,27,27,23,28,28,28,28,28,27,28,28,28,28,30,29,28,24,29,27,30,27,27,27,26,26,1271.txt
29,8,14,8,8,14,16,17,18,19,23,24,9,23,2,25,20,22,21,26,25,25,24,24,24,22,25,25,25,26,28,24,26,23,30,30,30,30,30,30,28,2,28,30,30,28,27,27,28,30,30,27,27,27,26,30,1274.txt
0,19,17,23,23,30,19,26,24,23,17,24,25,27,26,30,25,5,5,13,26,26,27,26,27,8,26,24,24,25,10,9,9,5,9,9,9,9,9,9,29,9,29,28,9,9,9,9,9,9,9,9,9,9,9,27,1276.txt
29,26,30,22,22,26,28,21,20,20,28,21,26,28,19,25,20,22,21,26,30,23,29,30,29,22,25,25,25,26,28,27,27,28,28,28,28,28,28,27,28,28,28,29,30,29,28,24,29,27,28,30,27,29,29,9,1278.txt
0,0,16,10,9,28,18,25,7,7,17,5,6,10,5,25,9,7,8,13,12,12,13,13,14,13,14,13,13,10,11,17,17,17,17,17,17,17,17,18,16,27,18,6,23,22,22,24,24,23,25,27,27,27,26,21,1280.txt
0,19,16,19,19,28,18,25,29,29,17,21,26,10,16,25,9,7,8,13,24,24,25,25,25,18,19,18,19,21,26,28,28,24,29,29,29,29,29,28,24,1,24,9,28,30,29,29,30,28,30,27,27,27,26,9,1283.txt
0,27,25,28,2,11,13,2,2,2,4,2,2,2,4,2,2,2,2,2,16,16,16,16,2,4,4,4,4,4,2,2,2,25,2,2,2,2,2,2,26,4,26,27,2,2,2,2,2,2,2,2,2,2,2,2,1285.txt
0,19,25,17,17,20,22,11,20,20,12,21,14,10,26,10,12,13,13,11,6,6,6,6,6,6,6,6,6,6,8,8,8,10,8,8,8,8,8,8,7,8,7,9,8,8,8,8,8,8,14,13,13,13,13,9,1287.txt
0,19,17,23,23,30,19,26,20,20,14,21,26,9,26,9,25,5,5,28,26,26,27,26,27,23,26,24,24,25,6,9,9,2,9,9,9,9,9,9,29,9,29,28,9,9,9,9,9,9,9,9,9,9,9,27,1288.txt
30,27,3,28,28,11,13,7,6,4,3,28,28,26,2,1,30,1,1,1,4,4,4,4,30,24,27,26,27,29,1,1,1,4,1,1,1,1,1,1,26,2,26,27,29,1,30,30,1,29,1,1,1,1,1,1,1290.txt
29,27,5,28,4,11,13,7,6,4,3,2,2,2,16,2,2,2,2,2,4,4,4,4,1,2,2,2,2,27,2,2,2,4,2,2,2,2,2,2,26,1,26,27,2,2,2,2,2,2,2,2,2,2,2,2,1292.txt
0,19,16,19,19,25,27,22,20,20,28,21,26,10,26,27,22,29,11,28,24,24,25,25,25,18,19,18,19,21,26,28,28,24,29,29,29,29,29,28,24,29,24,28,28,30,29,29,30,28,28,30,27,29,29,27,1295.txt
0,19,16,19,19,28,18,25,20,20,17,21,26,10,26,25,9,7,8,13,24,24,25,25,25,18,19,18,19,21,26,28,28,24,29,29,29,29,29,28,24,29,24,28,28,30,29,29,30,28,30,27,27,27,26,27,1297.txt
0,19,16,19,19,25,27,22,14,14,14,15,26,10,29,27,22,29,11,28,24,24,20,21,23,18,19,18,19,21,26,28,28,25,29,29,29,29,29,28,24,29,24,28,28,30,29,29,30,28,28,30,27,29,29,27,1300.txt
0,23,3,27,30,28,18,30,24,23,23,7,9,12,28,7,8,7,8,13,25,25,25,25,25,18,19,18,19,14,18,24,26,4,30,30,30,30,30,30,24,30,24,30,28,28,27,27,28,30,30,27,27,27,26,30,1302.txt
0,19,16,19,19,28,18,25,20,20,17,21,26,6,26,30,9,7,8,13,24,24,25,25,25,18,19,18,19,21,26,28,28,24,29,29,29,29,29,28,24,29,24,28,28,30,29,29,30,28,30,27,27,27,26,27,1303.txt
0,0,16,10,9,28,18,25,20,20,17,21,26,10,10,10,9,7,8,13,6,6,6,6,6,6,6,6,6,6,8,8,8,10,8,8,8,8,8,8,7,8,7,9,8,8,8,8,8,8,30,27,27,27,26,9,1305.txt
0,19,16,19,19,28,18,25,20,20,17,21,26,6,26,30,9,7,8,13,24,24,25,25,25,18,19,18,19,21,26,28,28,24,29,29,29,29,29,28,24,29,24,28,28,30,29,29,30,28,30,27,27,27,26,27,1307.txt
0,19,17,23,23,30,19,26,20,20,17,21,26,9,26,9,25,5,5,13,26,26,27,26,27,23,26,24,24,25,6,9,9,11,9,9,9,9,9,9,29,9,29,9,9,9,9,9,9,9,9,9,9,9,9,9,1309.txt
0,19,16,19,19,25,27,22,13,14,28,15,26,29,26,30,22,7,8,13,24,24,25,25,25,18,19,18,19,21,26,28,28,25,29,29,29,29,29,28,24,29,24,28,28,30,29,29,30,28,28,30,27,29,29,27,1311.txt
0,19,16,19,19,28,18,25,24,23,16,24,9,6,26,30,9,29,11,28,24,24,25,25,25,18,19,18,19,21,26,28,28,24,29,29,29,29,29,28,24,29,24,28,28,30,29,29,30,28,30,27,27,27,26,27,1314.txt
0,19,16,19,19,25,27,22,20,20,14,21,26,6,26,30,9,7,8,13,24,24,25,25,25,18,19,18,19,21,26,28,28,24,29,29,29,29,29,28,24,29,24,28,28,30,29,29,30,28,28,30,27,29,29,27,1315.txt
0,19,16,19,19,28,18,25,20,20,17,21,26,10,26,25,9,7,8,13,24,24,25,25,25,18,19,18,19,21,26,28,28,24,29,29,29,29,29,28,24,29,24,28,28,30,29,29,30,28,30,27,27,27,26,27,1317.txt
0,19,17,23,23,30,19,26,11,11,17,13,10,9,26,9,25,5,5,13,26,26,27,26,27,23,26,24,24,25,6,9,9,11,9,9,9,9,9,9,29,9,29,28,9,9,9,9,9,9,9,9,9,9,9,27,1318.txt
0,19,16,19,19,28,18,25,20,20,17,21,26,10,26,27,9,29,11,28,24,24,25,25,25,18,19,18,19,21,26,28,28,24,29,29,29,29,29,28,24,29,24,28,28,30,29,29,30,28,28,30,27,29,29,27,1320.txt
0,19,16,19,19,25,27,22,24,23,14,24,9,29,26,30,22,7,8,28,30,23,25,25,25,18,19,18,19,21,26,28,28,24,29,29,29,29,29,28,24,29,24,28,28,30,29,24,30,28,28,30,27,29,29,27,1323.txt
0,19,16,19,19,28,18,25,20,20,17,21,26,10,26,10,9,7,8,28,6,6,6,6,6,6,6,6,6,6,8,8,8,10,8,8,8,8,8,8,7,8,7,28,8,8,8,8,8,8,30,27,27,27,26,27,1325.txt
29,26,30,24,24,28,18,25,20,20,14,21,26,10,26,25,20,22,21,26,23,23,24,24,24,22,25,25,25,26,28,27,27,23,28,28,28,28,28,27,28,28,28,29,30,29,28,24,29,27,28,30,27,29,29,9,1327.txt
0,19,16,19,19,25,27,21,29,29,14,26,26,10,26,25,22,7,8,13,24,24,25,25,25,18,19,18,19,21,26,28,28,25,29,29,29,29,29,28,24,29,24,9,28,30,29,29,30,28,28,30,27,29,29,29,1329.txt
0,19,16,19,19,28,18,25,20,20,17,26,26,10,26,25,9,7,8,13,23,23,25,25,25,18,19,18,19,21,26,28,28,24,29,29,29,29,29,28,24,29,24,28,28,30,29,24,30,28,28,30,27,29,29,27,1331.txt
0,19,17,23,23,30,19,26,20,20,17,21,26,9,5,9,25,5,5,13,26,26,27,26,27,23,26,24,24,25,6,9,9,2,9,9,9,9,9,9,29,9,29,28,9,9,9,9,9,9,9,9,9,9,9,27,1332.txt
0,11,16,3,4,7,9,7,6,4,3,9,1,1,5,1,1,1,1,1,4,4,4,4,1,1,1,1,1,1,1,1,1,24,1,1,1,1,1,1,26,29,26,27,29,1,30,30,1,29,1,1,1,1,1,1,1335.txt
0,11,16,3,2,7,14,2,2,2,4,9,1,1,26,1,1,1,1,1,16,16,16,16,2,1,1,1,1,1,1,1,1,24,1,1,1,1,1,1,26,29,26,27,29,1,30,30,1,29,1,1,1,1,1,1,1337.txt
15,19,16,19,19,25,27,22,20,20,28,21,26,10,5,25,9,7,8,13,30,23,25,25,25,18,19,18,19,21,26,28,28,24,29,29,29,29,29,28,24,29,24,28,28,30,29,24,30,28,28,30,27,29,29,27,1339.txt
0,19,16,19,19,28,18,25,20,20,17,21,26,6,26,30,9,7,8,13,24,24,25,25,25,18,19,18,19,21,26,28,28,24,29,29,29,29,29,28,24,29,24,28,28,30,29,29,30,28,30,27,27,27,26,27,1341.txt
0,19,16,19,19,28,18,25,20,20,17,21,26,10,26,10,9,7,8,13,6,6,6,6,6,6,6,6,6,6,8,8,8,10,8,8,8,8,8,8,7,8,7,28,8,8,8,8,8,8,30,27,27,27,26,27,1344.txt
0,19,16,19,19,28,18,25,20,20,17,21,26,6,26,30,9,7,8,13,6,6,6,6,6,6,6,6,6,6,8,8,8,10,8,8,8,8,8,8,7,8,7,28,8,8,8,8,8,8,30,27,27,27,26,27,1346.txt
0,19,16,19,19,28,18,25,20,20,17,21,26,10,26,10,9,7,8,13,6,6,6,6,6,6,6,6,6,6,8,8,8,10,8,8,8,8,8,8,7,8,7,28,8,8,8,8,8,8,30,27,27,27,26,27,1348.txt
29,28,14,8,8,14,16,30,30,30,23,7,23,23,4,7,8,30,11,25,25,25,29,30,29,28,25,30,30,14,18,24,26,23,30,30,30,30,30,30,28,4,28,30,30,28,27,27,28,30,28,30,27,29,29,30,1351.txt
0,19,16,19,19,28,18,25,28,7,17,5,6,10,5,25,9,7,8,13,23,23,25,25,25,18,19,18,19,21,26,28,28,24,29,29,29,29,29,28,24,29,24,28,28,30,29,24,30,28,25,27,27,27,26,27,1352.txt
0,19,16,19,19,28,18,25,24,23,17,19,22,6,26,30,9,7,8,28,23,23,25,25,25,18,19,18,19,21,26,28,28,28,29,29,29,29,29,28,24,20,24,28,28,30,29,24,30,28,30,27,27,27,26,27,1354.txt
0,19,16,19,19,25,27,22,20,20,17,21,26,10,26,25,9,7,8,13,24,24,25,25,25,18,19,18,19,21,26,28,28,24,29,29,29,29,29,28,24,29,24,28,28,30,29,29,30,28,28,30,27,29,29,27,1356.txt
27,0,19,29,12,28,18,25,20,20,27,21,26,10,5,10,20,22,21,26,6,6,6,6,6,6,6,6,6,6,8,8,8,10,8,8,8,8,8,8,7,8,7,9,8,8,8,8,8,8,30,27,27,27,26,9,1358.txt
0,23,25,17,17,20,22,11,14,14,14,15,14,10,26,25,12,13,13,28,28,28,20,21,23,18,19,18,19,21,26,28,28,28,29,29,29,29,29,28,24,29,24,9,28,30,29,24,30,28,14,13,13,13,13,29,1360.txt
0,19,16,19,19,28,18,25,20,20,17,21,26,10,11,25,9,7,8,13,24,24,25,25,25,18,19,18,19,21,26,28,28,24,29,29,29,29,29,28,24,29,24,28,28,30,29,29,30,28,30,27,27,27,26,27,1362.txt
0,19,16,19,19,28,18,25,20,20,17,21,26,10,5,10,9,7,8,13,6,6,6,6,6,6,6,6,6,6,8,8,8,10,8,8,8,8,8,8,7,8,7,9,8,8,8,8,8,8,30,27,27,27,26,9,1364.txt
0,19,16,19,19,25,27,22,14,14,14,15,26,10,29,25,22,7,8,13,24,24,20,21,23,18,19,18,19,21,26,28,28,25,29,29,29,29,29,28,24,29,24,28,28,30,29,29,30,28,28,30,27,29,29,27,1367.txt
0,11,16,3,2,7,9,2,2,2,4,4,4,4,5,4,4,4,3,4,16,16,16,16,2,2,2,2,2,27,4,4,4,24,3,3,3,3,3,4,26,29,26,27,3,3,3,3,3,4,3,3,3,3,4,4,1368.txt
29,26,30,22,22,25,27,22,20,20,14,26,26,10,26,25,20,22,21,26,24,24,29,30,29,28,25,30,30,26,28,27,27,23,28,28,28,28,28,27,28,28,28,28,30,29,28,29,29,27,28,30,27,29,29,26,1371.txt
22,29,19,29,12,28,18,25,20,20,27,21,26,23,5,25,20,22,21,26,23,23,24,24,24,22,25,25,25,26,28,27,27,23,28,28,28,28,28,27,28,28,28,29,30,29,28,24,29,27,30,27,27,27,26,29,1372.txt
0,19,16,19,19,28,18,25,20,20,17,21,26,10,26,25,9,7,8,13,24,24,25,25,25,18,19,18,19,21,26,28,28,24,29,29,29,29,29,28,24,29,24,9,28,30,29,29,30,28,30,27,27,27,26,9,1375.txt
0,19,16,19,19,28,18,25,20,20,8,21,26,10,5,25,9,7,8,5,24,24,25,25,25,18,19,18,19,21,26,28,28,17,29,29,29,29,29,28,24,29,24,6,28,30,29,29,30,28,30,27,27,27,26,27,1377.txt
0,19,16,19,19,28,18,25,20,20,17,21,26,10,5,25,9,7,8,13,24,24,25,25,25,18,19,18,19,21,26,28,28,24,29,29,29,29,29,28,24,29,24,6,28,30,29,29,30,28,30,27,27,27,26,27,1379.txt
0,11,16,3,2,7,9,2,2,2,4,9,1,1,11,1,1,1,1,1,16,16,16,16,2,1,1,1,1,1,1,1,1,24,1,1,1,1,1,1,26,29,26,27,29,1,30,30,1,29,1,1,1,1,1,1,1380.txt
29,29,19,24,24,28,18,25,20,20,27,21,26,10,26,10,20,22,21,26,6,6,6,6,6,6,6,6,6,6,8,8,8,10,8,8,8,8,8,8,7,8,7,9,8,8,8,8,8,8,30,27,27,27,26,9,1383.txt
0,19,16,19,19,28,18,25,29,29,17,26,26,12,26,25,9,7,8,13,24,24,25,25,25,18,19,18,19,21,26,28,28,24,29,29,29,29,29,28,24,29,24,9,28,30,29,29,30,28,30,27,27,27,26,29,1389.txt
0,23,28,19,19,25,27,22,29,29,14,26,26,12,26,25,22,7,22,13,24,24,25,25,25,18,19,18,19,21,26,28,28,24,29,29,29,29,29,28,24,29,24,28,28,30,29,29,30,28,28,30,27,29,29,27,1390.txt
0,19,17,23,23,30,19,26,20,20,17,21,26,9,26,9,25,5,5,13,26,26,27,26,27,23,26,24,24,25,6,9,9,11,9,9,9,9,9,9,29,9,29,28,9,9,9,9,9,9,9,9,9,9,9,27,1392.txt
0,19,16,19,19,25,27,22,20,20,17,21,26,6,26,30,9,7,8,13,24,24,25,25,25,18,19,18,19,21,26,28,28,24,29,29,29,29,29,28,24,29,24,28,28,30,29,29,30,28,30,27,27,27,26,27,1395.txt
0,19,16,19,19,28,18,25,20,20,17,21,26,10,26,25,9,7,8,13,24,24,25,25,25,18,19,18,19,21,26,28,28,24,29,29,29,29,29,28,24,29,24,28,28,30,29,29,30,28,30,27,27,27,26,27,1396.txt
0,19,16,19,19,25,27,22,24,23,14,24,23,10,10,25,22,7,8,13,28,28,20,21,23,18,19,18,19,21,26,28,28,25,29,29,29,29,29,28,24,29,24,28,28,30,29,24,30,28,28,30,27,29,29,27,1398.txt
0,19,16,19,19,28,18,25,20,20,17,21,26,10,26,25,9,7,8,13,24,24,25,25,25,18,19,18,19,21,26,28,28,24,29,29,29,29,29,28,24,29,24,28,28,30,29,29,30,28,30,27,27,27,26,27,1400.txt
0,19,17,23,23,18,20,16,14,14,14,15,26,9,29,9,11,5,5,5,8,8,8,8,8,23,26,24,24,25,6,9,9,11,9,9,9,9,9,9,29,9,29,9,9,9,9,9,9,9,9,9,9,9,9,29,1402.txt
29,29,19,13,12,28,18,25,20,20,27,21,26,10,5,25,20,22,21,26,23,23,24,24,24,22,25,25,25,26,28,27,27,23,28,28,28,28,28,27,28,28,28,12,30,29,28,24,29,27,30,27,27,27,26,9,1405.txt
0,19,16,19,19,28,18,25,11,11,17,13,10,6,26,30,9,7,8,13,24,24,25,25,25,18,19,18,19,21,26,28,28,24,29,29,29,29,29,28,24,29,24,28,28,30,29,29,30,28,30,27,27,27,26,27,1407.txt
0,19,17,23,23,30,19,26,24,23,28,24,9,9,26,9,25,5,5,13,26,26,27,26,27,23,26,24,24,25,6,9,9,5,9,9,9,9,9,9,29,9,29,28,9,9,9,9,9,9,9,9,9,9,9,27,1409.txt
29,1,4,21,21,29,28,27,29,29,30,26,26,23,19,25,20,22,21,26,28,28,29,30,29,28,25,30,30,26,28,27,27,28,28,28,28,28,28,27,28,28,28,29,30,29,28,24,29,27,28,30,27,29,29,29,1412.txt
0,19,16,19,19,28,18,25,20,20,17,21,26,10,26,25,9,7,8,13,24,24,25,25,25,18,19,18,19,21,26,28,28,24,29,29,29,29,29,28,24,29,24,28,28,30,29,29,30,28,30,27,27,27,26,27,1416.txt
0,19,16,19,19,28,18,25,20,20,17,21,26,10,26,10,9,7,8,13,6,6,6,6,6,6,6,6,6,6,8,8,8,10,8,8,8,8,8,8,7,8,7,9,8,8,8,8,8,8,30,27,27,27,26,9,1418.txt
0,19,16,19,19,28,18,25,11,11,17,13,10,6,5,30,9,7,8,28,23,23,25,25,25,18,19,18,19,21,26,28,28,24,29,29,29,29,29,28,24,29,24,6,28,30,29,24,30,28,30,27,27,27,26,27,1421.txt
0,19,25,17,17,20,22,11,20,20,14,21,14,10,26,25,12,13,13,11,24,24,25,25,25,18,19,18,19,21,26,28,28,24,29,29,29,29,29,28,24,29,24,9,28,30,29,29,30,28,14,13,13,13,13,9,1422.txt
0,19,16,19,19,28,18,25,20,20,17,21,26,6,5,30,9,7,8,13,24,24,25,25,25,18,19,18,19,21,26,28,28,24,29,29,29,29,29,28,24,29,24,28,28,30,29,29,30,28,30,27,27,27,26,27,1425.txt
0,19,16,10,9,28,18,25,7,7,17,5,6,6,5,30,9,7,8,13,6,6,6,6,6,6,6,6,6,6,8,8,8,10,8,8,8,8,8,8,7,8,7,21,8,8,8,8,8,8,25,27,27,27,26,21,1427.txt
0,0,16,10,9,28,18,25,20,20,17,21,26,10,9,10,9,7,8,13,6,6,6,6,6,6,6,6,6,6,8,8,8,10,8,8,8,8,8,8,7,8,7,21,8,8,8,8,8,8,30,27,27,27,26,21,1429.txt
0,19,16,19,19,25,27,22,14,14,14,15,26,6,26,30,22,29,11,28,24,24,25,25,25,18,19,18,19,21,26,28,28,24,29,29,29,29,29,28,24,29,24,28,28,30,29,29,30,28,28,30,27,29,29,27,1431.txt
0,19,16,19,19,28,18,25,20,20,17,21,26,10,26,25,9,7,8,13,24,24,25,25,25,18,19,18,19,21,26,28,28,24,29,29,29,29,29,28,24,29,24,28,28,30,29,29,30,28,30,27,27,27,26,27,1433.txt
0,19,16,19,19,25,27,27,29,29,14,21,26,10,26,25,22,7,8,13,24,24,25,25,25,18,19,18,19,21,26,28,28,24,29,29,29,29,29,28,24,29,24,28,28,30,29,29,30,28,28,30,27,29,29,27,1434.txt
0,19,16,19,19,25,27,27,29,29,14,21,26,10,26,25,22,7,8,13,24,24,25,25,25,18,19,18,19,21,26,28,28,24,29,29,29,29,29,28,24,29,24,28,28,30,29,29,30,28,28,30,27,29,29,27,1436.txt
0,23,22,19,19,25,27,21,29,29,14,26,26,10,29,25,22,7,22,28,24,24,25,25,25,18,19,18,19,21,26,28,28,28,29,29,29,29,29,28,24,20,24,6,28,30,29,29,30,28,11,30,27,29,29,27,1439.txt
0,19,16,19,19,28,18,25,20,20,17,21,26,6,26,30,9,7,8,13,6,6,6,6,6,6,6,6,6,6,8,8,8,10,8,8,8,8,8,8,7,8,7,28,8,8,8,8,8,8,28,30,27,29,29,27,1441.txt
0,19,16,19,19,28,18,25,20,20,17,21,26,10,26,25,9,7,8,13,24,24,25,25,25,18,19,18,19,21,26,28,28,17,29,29,29,29,29,28,24,29,24,28,28,30,29,29,30,28,30,27,27,27,26,27,1442.txt
29,0,17,23,23,30,19,26,20,20,27,21,26,20,9,19,25,5,5,26,26,26,27,26,27,8,26,24,24,25,10,9,9,11,9,9,9,9,9,9,29,9,29,21,9,9,9,9,9,9,9,9,9,9,9,26,1444.txt
0,19,16,19,19,28,18,25,20,20,17,21,26,10,26,10,9,7,8,13,6,6,6,6,6,6,6,6,6,6,8,8,8,10,8,8,8,8,8,8,7,8,7,9,8,8,8,8,8,8,30,27,27,27,26,9,1446.txt
0,0,17,23,23,30,19,26,20,20,17,21,26,9,5,9,25,5,5,13,26,26,27,26,27,23,26,24,24,25,6,9,9,11,9,9,9,9,9,9,29,9,29,9,9,9,9,9,9,9,9,9,9,9,9,9,1448.txt
0,19,16,19,19,28,18,25,20,20,14,21,26,6,26,30,9,29,23,28,24,24,25,25,25,18,19,18,19,21,26,28,28,24,29,29,29,29,29,28,24,29,24,28,28,30,29,29,30,28,30,27,27,27,26,27,1451.txt
0,19,16,19,19,28,18,25,20,20,14,21,26,10,5,25,9,7,8,13,24,24,25,25,25,18,19,18,19,21,26,28,28,24,29,29,29,29,29,28,24,29,24,28,28,30,29,29,30,28,30,27,27,27,26,27,1453.txt
0,19,16,19,19,25,27,21,20,20,17,21,26,10,5,25,9,7,8,13,30,23,25,25,25,18,19,18,19,21,26,28,28,24,29,29,29,29,29,28,24,29,24,9,28,30,29,24,30,28,30,27,27,27,26,9,1454.txt
0,19,16,19,19,28,18,25,20,20,17,21,26,12,5,10,9,7,8,13,6,6,6,6,6,6,6,6,6,6,8,8,8,10,8,8,8,8,8,8,7,8,7,9,8,8,8,8,8,8,30,27,27,27,26,8,1456.txt
0,19,16,19,19,25,27,27,24,23,14,24,9,10,26,25,22,7,8,13,24,24,25,25,25,18,19,18,19,21,26,28,28,24,29,29,29,29,29,28,24,29,24,28,28,30,29,29,30,28,28,30,27,29,29,27,1458.txt
27,29,17,23,23,30,19,26,20,20,25,21,26,20,30,19,25,5,5,26,26,26,27,26,27,23,26,24,24,25,6,9,9,5,9,9,9,9,9,9,29,9,29,28,9,9,9,9,9,9,9,9,9,9,9,26,1460.txt
0,19,16,19,19,28,18,25,7,7,17,5,6,10,26,25,9,7,8,13,24,24,25,25,25,18,19,18,19,21,26,28,28,24,29,29,29,29,29,28,24,29,24,28,28,30,29,29,30,28,25,27,27,27,26,27,1462.txt
0,19,16,19,19,28,18,25,24,23,17,24,9,6,26,30,9,7,8,13,24,24,25,25,25,18,19,18,19,21,26,28,28,24,29,29,29,29,29,28,24,29,24,28,28,30,29,29,30,28,30,27,27,27,26,27,1465.txt
0,19,16,19,19,25,27,30,24,23,14,7,9,6,28,7,8,29,11,28,24,24,20,21,23,18,19,18,19,14,18,28,28,24,29,29,29,29,29,28,24,29,24,28,28,30,29,29,30,28,28,30,27,29,29,27,1467.txt
0,19,16,19,19,28,18,25,20,20,17,21,26,10,26,10,9,7,8,13,6,6,6,6,6,6,6,6,6,6,8,8,8,10,8,8,8,8,8,8,7,8,7,28,8,8,8,8,8,8,30,27,27,27,26,27,1469.txt
0,19,3,19,19,28,18,25,20,20,17,21,26,10,26,25,9,7,8,13,23,23,25,25,25,18,19,18,19,21,26,28,28,28,29,29,29,29,29,28,24,29,24,9,28,30,29,24,30,28,28,30,27,29,29,29,1470.txt
0,0,25,17,17,20,22,11,20,20,12,21,14,10,9,25,12,13,13,11,12,12,13,13,14,13,14,13,13,10,11,17,17,24,17,17,17,17,17,18,16,27,18,9,23,22,22,24,24,23,14,13,13,13,13,29,1473.txt
0,11,16,3,2,7,9,2,2,2,4,9,1,1,5,1,1,1,1,1,16,16,16,16,2,1,1,1,1,1,1,1,1,10,1,1,1,1,1,1,26,8,26,27,29,1,30,30,1,29,1,1,1,1,1,1,1475.txt
22,29,17,23,23,18,20,16,20,20,27,21,26,9,26,9,11,5,5,26,8,8,8,8,8,23,26,24,24,25,6,9,9,11,9,9,9,9,9,9,29,9,29,28,9,9,9,9,9,9,9,9,9,9,9,26,1477.txt
0,19,16,19,19,25,27,22,29,29,14,21,26,10,5,25,9,7,8,13,24,24,25,25,25,18,19,18,19,21,26,28,28,24,29,29,29,29,29,28,24,29,24,6,28,30,29,29,30,28,30,27,27,27,26,27,1480.txt
0,19,16,19,19,28,18,25,20,20,17,21,26,10,26,25,9,7,8,13,23,23,25,25,25,18,19,18,19,21,26,28,28,17,29,29,29,29,29,28,24,29,24,9,28,30,29,24,30,28,30,27,27,27,26,29,1482.txt
0,19,16,19,19,28,18,25,20,20,17,21,26,12,11,25,9,7,8,13,24,24,25,25,25,18,19,18,19,21,26,28,28,24,29,29,29,29,29,28,24,29,24,9,28,30,29,29,30,28,30,27,27,27,26,29,1484.txt
0,19,16,19,19,25,27,22,14,14,14,15,26,10,26,25,22,7,8,13,24,24,25,25,25,18,19,18,19,21,26,28,28,24,29,29,29,29,29,28,24,29,24,28,28,30,29,29,30,28,28,30,27,29,29,27,1487.txt
0,19,16,19,19,28,18,25,20,20,17,21,26,10,26,25,9,7,8,13,24,24,25,25,25,18,19,18,19,21,26,28,28,24,29,29,29,29,29,28,24,29,24,28,28,30,29,29,30,28,30,27,27,27,26,27,1490.txt
0,19,16,19,19,28,18,25,20,20,17,21,26,10,26,10,9,7,8,13,6,6,6,6,6,6,6,6,6,6,8,8,8,10,8,8,8,8,8,8,7,8,7,28,8,8,8,8,8,8,30,27,27,27,26,27,1491.txt
29,27,12,28,2,11,13,2,2,2,4,2,2,2,4,2,2,2,2,2,16,16,16,16,2,26,28,27,26,27,2,2,2,4,2,2,2,2,2,2,26,4,26,27,2,2,2,2,2,2,2,2,2,2,2,2,1494.txt
15,19,3,19,19,28,18,25,20,20,17,21,26,10,26,25,9,7,8,13,24,24,25,25,25,18,19,18,19,21,26,28,28,4,29,29,29,29,29,28,24,29,24,9,28,30,29,29,30,28,30,27,27,27,26,29,1497.txt
0,19,16,19,19,25,27,22,20,20,17,21,26,10,5,25,9,7,8,13,24,24,25,25,25,18,19,18,19,21,26,28,28,24,29,29,29,29,29,28,24,29,24,28,28,30,29,29,30,28,28,30,27,29,29,27,1499.txt
0,19,16,19,19,28,18,25,20,20,17,21,26,10,26,25,9,7,8,13,24,24,25,25,25,18,19,18,19,21,26,28,28,24,29,29,29,29,29,28,24,20,24,28,28,30,29,29,30,28,30,27,27,27,26,27,1502.txt
0,19,16,19,19,25,27,21,20,20,14,21,26,10,26,25,22,7,8,13,23,23,25,25,25,18,19,18,19,21,26,28,28,25,29,29,29,29,29,28,24,29,24,28,28,30,29,24,30,28,28,30,27,29,29,27,1504.txt
27,27,19,25,28,11,13,7,6,4,3,9,1,1,19,1,1,1,1,1,4,4,4,4,30,1,1,1,1,1,1,1,1,23,1,1,1,1,1,1,26,28,26,27,29,1,30,30,1,29,1,1,1,1,1,1,1505.txt
0,19,16,19,19,28,18,25,20,20,17,21,26,27,26,30,9,7,8,13,24,24,25,25,25,18,19,18,19,21,26,28,28,28,29,29,29,29,29,28,24,29,24,28,28,30,29,29,30,28,30,27,27,27,26,27,1507.txt
0,19,16,19,19,28,18,25,20,20,17,21,26,10,26,25,9,7,8,13,23,23,25,25,25,18,19,18,19,21,26,28,28,24,29,29,29,29,29,28,24,29,24,28,28,30,29,24,30,28,30,27,27,27,26,27,1509.txt
29,29,19,13,12,28,18,25,20,20,27,21,26,23,11,25,20,22,21,26,12,12,24,24,24,22,25,25,25,26,28,27,27,23,28,28,28,28,28,27,28,28,28,26,30,29,28,24,29,27,30,27,27,27,26,26,1511.txt
0,19,17,23,23,30,19,26,20,20,17,21,26,9,26,9,25,5,5,13,26,26,27,26,27,8,26,24,24,25,10,9,9,11,9,9,9,9,9,9,29,9,29,28,9,9,9,9,9,9,9,9,9,9,9,27,1513.txt
0,0,16,10,9,24,26,20,20,20,17,21,26,10,9,25,9,7,8,13,12,12,13,13,14,13,14,13,13,10,11,17,17,24,17,17,17,17,17,18,16,27,18,9,23,22,22,28,24,23,28,30,27,29,29,9,1515.txt
0,19,16,19,19,28,18,25,29,29,17,21,26,24,26,25,9,7,8,13,24,24,25,25,25,18,19,18,19,21,26,28,28,24,29,29,29,29,29,28,24,29,24,28,28,30,29,29,30,28,28,30,27,29,29,27,1518.txt
0,19,16,19,19,28,18,25,20,20,17,21,26,10,26,25,9,7,8,13,23,23,25,25,25,18,19,18,19,21,26,28,28,24,29,29,29,29,29,28,24,29,24,9,28,30,29,24,30,28,30,27,27,27,26,29,1519.txt
0,19,16,10,9,28,18,25,20,20,17,21,26,10,26,25,9,7,8,13,12,12,25,25,25,13,14,13,13,10,11,17,17,24,17,17,17,17,17,18,16,27,18,21,23,22,22,28,24,23,30,27,27,27,26,21,1521.txt
0,19,16,19,19,28,18,25,20,20,17,21,26,10,26,25,9,7,8,13,24,24,25,25,25,18,19,18,19,21,26,28,28,24,29,29,29,29,29,28,24,29,24,9,28,30,29,29,30,28,30,27,27,27,26,9,1523.txt
0,0,16,10,9,28,18,25,20,20,17,21,26,10,9,25,9,7,8,13,12,12,13,13,14,13,14,13,13,10,11,17,17,24,17,17,17,17,17,18,16,27,18,21,23,22,22,28,24,23,30,27,27,27,26,21,1526.txt
29,16,19,24,24,26,28,21,29,29,25,21,26,28,19,25,20,22,21,26,23,23,24,24,24,22,25,25,25,26,28,27,27,23,28,28,28,28,28,27,28,28,28,29,30,29,28,24,29,27,28,30,27,29,29,9,1528.txt
0,12,16,4,2,11,13,2,2,2,4,4,4,4,26,4,4,4,3,4,16,16,16,16,2,2,2,2,2,27,4,4,4,24,3,3,3,3,3,4,26,29,26,27,4,3,3,3,15,4,3,3,11,3,4,4,1529.txt
0,19,16,19,19,28,18,25,29,29,17,21,26,12,26,25,9,7,8,13,24,24,25,25,25,18,19,18,19,21,26,28,28,24,29,29,29,29,29,28,24,29,24,9,28,30,29,29,30,28,30,27,27,27,26,9,1532.txt
22,29,19,22,22,26,28,22,20,20,25,21,26,23,19,25,20,22,21,26,30,23,24,24,24,22,25,25,25,26,28,27,27,23,28,28,28,28,28,27,28,28,28,29,30,29,28,24,29,27,28,30,27,29,29,29,1534.txt
29,27,19,28,2,11,13,2,2,2,4,9,1,1,2,1,1,1,1,1,16,16,16,16,2,1,1,1,1,1,1,1,1,23,1,1,1,1,1,1,26,2,26,27,29,1,30,30,1,29,1,1,1,1,1,1,1536.txt
0,19,11,6,5,30,19,26,20,20,17,21,26,9,5,9,25,5,5,13,26,26,27,26,27,23,5,5,5,5,6,6,6,11,6,6,6,6,6,6,6,6,6,9,6,7,6,6,6,6,6,6,6,6,6,29,1538.txt
0,0,16,10,9,28,18,25,20,20,17,21,26,10,5,10,9,7,8,13,6,6,6,6,6,6,6,6,6,6,8,8,8,10,8,8,8,8,8,8,7,8,7,21,8,8,8,8,8,8,30,27,27,27,26,21,1540.txt
0,19,16,19,19,28,18,25,20,20,17,21,26,6,26,30,9,7,8,13,24,24,25,25,25,18,19,18,19,21,26,28,28,24,29,29,29,29,29,28,24,29,24,28,28,30,29,29,30,28,30,27,27,27,26,27,1543.txt
0,19,16,19,19,28,18,25,20,20,17,21,26,6,26,30,9,7,8,13,23,23,25,25,25,18,19,18,19,21,26,28,28,24,29,29,29,29,29,28,24,29,24,28,28,30,29,24,30,28,30,27,27,27,26,27,1545.txt
0,19,16,19,19,28,18,25,20,20,17,21,26,12,4,25,9,7,8,13,24,24,25,25,25,18,19,18,19,21,26,28,28,24,29,29,29,29,29,28,24,4,24,28,28,30,29,29,30,28,30,27,27,27,26,27,1546.txt
29,29,19,24,24,28,18,25,20,20,27,21,26,10,26,25,20,22,21,26,24,24,24,24,24,22,25,25,25,26,28,27,27,23,28,28,28,28,28,27,28,28,28,28,30,29,28,29,29,27,30,27,27,27,26,26,1548.txt
29,29,19,22,22,26,28,21,20,20,25,23,26,23,5,25,20,22,21,26,30,23,24,24,24,22,25,25,25,26,28,27,27,23,28,28,28,28,28,27,28,28,28,29,30,29,28,24,29,27,28,30,27,29,29,8,1551.txt
0,19,16,19,19,28,18,25,20,20,17,21,26,10,5,10,9,7,8,13,6,6,6,6,6,6,6,6,6,6,8,8,8,10,8,8,8,8,8,8,7,8,7,28,8,8,8,8,8,8,30,27,27,27,26,27,1552.txt
0,19,16,19,19,28,18,25,20,20,17,21,26,10,5,10,9,7,8,13,6,6,6,6,6,6,6,6,6,6,8,8,8,10,8,8,8,8,8,8,7,8,7,9,8,8,8,8,8,8,30,27,27,27,26,29,1556.txt
0,19,16,19,19,28,18,25,20,20,16,21,26,6,26,30,9,7,8,13,6,6,6,6,6,6,6,6,6,6,8,8,8,10,8,8,8,8,8,8,7,8,7,28,8,8,8,8,8,8,30,27,27,27,26,27,1558.txt
0,0,17,23,23,30,19,26,20,20,17,21,26,9,26,9,25,5,5,13,26,26,27,26,27,23,26,24,24,25,6,9,9,5,9,9,9,9,9,9,29,9,29,21,9,9,9,9,9,9,9,9,9,9,9,21,1561.txt
0,0,16,10,9,28,18,25,20,20,17,21,26,6,9,30,9,7,8,13,6,6,6,6,6,6,6,6,6,6,8,8,8,10,8,8,8,8,8,8,7,8,7,21,8,8,8,8,8,8,30,27,27,27,26,21,1563.txt
0,19,16,19,19,28,18,25,20,20,17,21,26,10,5,10,9,7,8,13,6,6,6,6,6,6,6,6,6,6,8,8,8,28,8,8,8,8,8,8,7,8,7,9,8,8,8,8,8,8,30,27,27,27,26,9,1565.txt
0,19,16,19,19,28,18,25,29,29,14,23,26,10,26,25,9,7,8,13,24,24,25,25,25,18,19,18,19,21,26,28,28,24,29,29,29,29,29,28,24,29,24,28,28,30,29,29,30,28,28,30,27,29,29,27,1567.txt
0,19,16,19,19,28,18,25,20,20,17,21,26,6,26,30,9,29,23,28,24,24,25,25,25,18,19,18,19,21,26,28,28,24,29,29,29,29,29,28,24,29,24,28,28,30,29,29,30,28,5,27,27,27,26,27,1570.txt
29,29,19,29,12,28,18,25,7,7,27,5,6,10,5,25,20,22,21,26,23,23,24,24,24,22,25,25,25,26,28,27,27,23,28,28,28,28,28,27,28,28,28,28,30,29,28,24,29,27,25,27,27,27,26,26,1572.txt
0,19,16,19,19,28,18,25,20,20,17,21,26,10,5,10,9,7,8,13,6,6,6,6,6,6,6,6,6,6,8,8,8,28,8,8,8,8,8,8,7,8,7,9,8,8,8,8,8,8,30,27,27,27,26,8,1574.txt
0,19,16,19,19,28,18,25,20,20,17,21,26,10,26,25,9,7,8,13,24,24,25,25,25,18,19,18,19,21,26,28,28,24,29,29,29,29,29,28,24,29,24,28,28,30,29,29,30,28,30,27,27,27,26,27,1581.txt
0,19,16,19,19,28,18,25,20,20,17,21,26,6,26,30,9,7,8,13,23,23,25,25,25,18,19,18,19,21,26,28,28,24,29,29,29,29,29,28,24,29,24,28,28,30,29,24,30,28,30,27,27,27,26,27,1583.txt
29,29,19,24,24,28,18,25,29,29,27,21,26,23,5,25,20,22,21,26,23,23,24,24,24,22,25,25,25,26,28,27,27,23,28,28,28,28,28,27,28,28,28,29,30,29,28,24,29,27,28,30,27,29,29,29,1585.txt
0,11,16,3,2,7,9,2,2,2,4,9,1,1,5,1,1,1,1,1,16,16,16,16,2,1,1,1,1,1,1,1,1,10,1,1,1,1,1,1,26,8,26,27,29,1,30,30,1,29,1,1,1,1,1,1,1587.txt
0,19,16,19,19,28,18,25,20,20,17,21,26,6,26,30,9,7,8,13,6,6,6,6,6,6,6,6,6,6,8,8,8,10,8,8,8,8,8,8,7,8,7,28,8,8,8,8,8,8,30,27,27,27,26,27,1589.txt
0,19,16,19,19,25,27,21,11,11,14,13,10,29,26,20,22,7,8,8,24,24,25,25,25,18,19,18,19,21,26,28,28,28,29,29,29,29,29,28,24,29,24,28,28,30,29,29,30,28,28,30,27,29,29,27,1590.txt
0,19,16,19,19,28,18,25,20,20,17,21,26,12,5,25,9,7,8,13,24,24,25,25,25,18,19,18,19,21,26,28,28,24,29,29,29,29,29,28,24,29,24,6,28,30,29,29,30,28,30,27,27,27,26,27,1594.txt
0,0,16,10,9,28,18,25,20,20,17,21,26,10,9,10,9,7,8,13,6,6,6,6,6,6,6,6,6,6,8,8,8,10,8,8,8,8,8,8,7,8,7,21,8,8,8,8,8,8,30,27,27,27,26,21,1596.txt
0,19,16,19,19,28,18,25,20,20,17,21,26,10,5,25,9,7,8,13,24,24,25,25,25,18,19,18,19,21,26,28,28,24,29,29,29,29,29,28,24,29,24,28,28,30,29,29,30,28,30,27,27,27,26,27,1598.txt
0,19,16,19,19,28,18,25,20,20,17,21,26,10,26,25,9,7,8,13,24,24,25,25,25,18,19,18,19,21,26,28,28,24,29,29,29,29,29,28,24,29,24,28,28,30,29,29,30,28,30,27,27,27,26,27,1600.txt
0,19,16,19,19,28,18,25,20,20,17,21,26,10,26,10,9,7,8,13,6,6,6,6,6,6,6,6,6,6,8,8,8,10,8,8,8,8,8,8,7,8,7,9,8,8,8,8,8,8,30,27,27,27,26,29,1602.txt
0,19,16,19,19,28,18,25,28,7,17,5,6,10,26,10,9,7,8,13,6,6,6,6,6,6,6,6,6,6,8,8,8,10,8,8,8,8,8,8,7,8,7,28,8,8,8,8,8,8,25,27,27,27,26,27,1604.txt
0,19,16,19,19,28,18,25,20,20,14,21,26,10,26,25,9,7,8,13,24,24,25,25,25,18,19,18,19,21,26,28,28,24,29,29,29,29,29,28,24,29,24,9,28,30,29,29,30,28,30,27,27,27,26,8,1605.txt
0,19,16,19,19,25,27,22,29,29,14,21,26,10,11,26,22,29,11,28,24,24,25,25,25,18,19,18,19,21,26,28,28,24,29,29,29,29,29,28,24,29,24,9,28,30,29,29,30,28,28,30,27,29,29,9,1608.txt
0,19,16,19,19,28,18,25,20,20,17,21,26,10,5,25,9,7,8,13,24,24,25,25,25,18,19,18,19,21,26,28,28,24,29,29,29,29,29,28,24,29,24,28,28,30,29,29,30,28,30,27,27,27,26,27,1610.txt
0,19,17,23,23,30,19,26,20,20,17,21,26,9,26,9,25,5,5,13,26,26,27,26,27,23,26,24,24,25,6,9,9,11,9,9,9,9,9,9,29,9,29,9,9,9,9,9,9,9,9,9,9,9,9,29,1612.txt
0,19,16,19,19,28,18,25,20,20,17,21,26,10,26,10,9,7,8,13,6,6,6,6,6,6,6,6,6,6,8,8,8,10,8,8,8,8,8,8,7,8,7,28,8,8,8,8,8,8,30,27,27,27,26,27,1615.txt
0,19,16,19,19,28,18,25,20,20,17,21,26,10,5,10,9,7,8,13,6,6,6,6,6,6,6,6,6,6,8,8,8,10,8,8,8,8,8,8,7,8,7,28,8,8,8,8,8,8,30,27,27,27,26,27,1616.txt
0,19,16,19,19,28,18,25,20,20,14,21,26,10,26,25,9,7,8,13,24,24,25,25,25,18,19,18,19,21,26,28,28,24,29,29,29,29,29,28,24,29,24,28,28,30,29,29,30,28,30,27,27,27,26,27,1618.txt
0,19,16,19,19,25,27,22,20,20,14,21,26,10,26,27,9,29,11,28,24,24,25,25,25,18,19,18,19,21,26,28,28,24,29,29,29,29,29,28,24,29,24,28,28,30,29,29,30,28,30,27,27,27,26,27,1622.txt
0,0,17,23,23,30,19,26,7,7,17,5,6,9,9,9,25,5,5,13,26,26,27,26,27,23,26,24,24,25,6,9,9,11,9,9,9,9,9,9,29,9,29,21,9,9,9,9,9,9,9,9,9,9,9,21,1623.txt
0,19,16,19,19,28,18,25,20,20,17,21,26,10,26,25,9,7,8,13,24,24,25,25,25,18,19,18,19,21,26,28,28,24,29,29,29,29,29,28,24,29,24,28,28,30,29,29,30,28,30,27,27,27,26,27,1626.txt
0,19,17,23,23,30,19,26,20,20,17,21,26,9,26,9,25,5,5,13,26,26,27,26,27,23,26,24,24,25,6,9,9,5,9,9,9,9,9,9,29,9,29,28,9,9,9,9,9,9,9,9,9,9,9,27,1629.txt
0,0,16,10,9,28,18,25,20,20,17,21,26,12,26,10,9,7,8,13,6,6,6,6,6,6,6,6,6,6,8,8,8,10,8,8,8,8,8,8,7,8,7,21,8,8,8,8,8,8,30,27,27,27,26,21,1631.txt
0,19,16,19,19,28,18,25,20,20,14,21,26,10,5,25,9,7,8,13,24,24,25,25,25,18,19,18,19,21,26,28,28,24,29,29,29,29,29,28,24,29,24,28,28,30,29,29,30,28,28,30,27,29,29,27,1632.txt
0,0,16,10,9,28,18,25,20,20,17,21,26,10,9,25,9,7,8,13,12,12,13,13,14,13,14,13,13,10,11,17,17,24,17,17,17,17,17,18,16,27,18,9,23,22,22,28,24,23,30,27,27,27,26,9,1637.txt
29,24,19,24,24,28,18,25,20,20,27,21,26,10,26,25,20,22,21,26,24,24,24,24,24,22,25,25,25,26,28,27,27,23,28,28,28,28,28,27,28,28,28,29,30,29,28,29,29,27,30,27,27,27,26,9,1639.txt
0,19,16,19,19,28,18,25,20,20,17,21,26,10,26,10,9,7,8,13,6,6,6,6,6,6,6,6,6,6,8,8,8,10,8,8,8,8,8,8,7,8,7,28,8,8,8,8,8,8,30,27,27,27,26,27,1641.txt
0,19,16,19,19,28,18,25,20,20,17,21,26,12,26,25,9,7,8,13,24,24,25,25,25,18,19,18,19,21,26,28,28,24,29,29,29,29,29,28,24,29,24,28,28,30,29,29,30,28,30,27,27,27,26,27,1643.txt
0,19,16,19,19,28,18,25,20,20,17,21,26,10,26,25,9,7,8,13,24,24,25,25,25,18,19,18,19,21,26,28,28,24,29,29,29,29,29,28,24,29,24,28,28,30,29,29,30,28,30,27,27,27,26,27,1645.txt
0,19,17,23,23,30,19,26,20,20,17,21,26,6,26,30,25,5,5,13,26,26,27,26,27,8,26,24,24,25,10,9,9,5,9,9,9,9,9,9,29,9,29,28,9,9,9,9,9,9,9,9,9,9,9,27,1647.txt
0,19,17,23,23,30,19,26,20,20,28,21,26,9,26,9,25,5,5,13,26,26,27,26,27,23,26,24,24,25,6,9,9,11,9,9,9,9,9,9,29,9,29,9,9,9,9,9,9,9,9,9,9,9,9,8,1650.txt
0,19,16,19,19,28,18,25,20,20,17,21,26,10,26,25,9,7,8,13,24,24,25,25,25,18,19,18,19,21,26,28,28,24,29,29,29,29,29,28,24,29,24,28,28,30,29,29,30,28,30,27,27,27,26,27,1652.txt
0,0,16,19,19,28,18,25,11,11,17,13,10,6,5,30,9,29,11,28,6,6,6,6,6,6,6,6,6,6,8,8,8,10,8,8,8,8,8,8,7,8,7,28,8,8,8,8,8,8,25,27,27,27,26,27,1654.txt
0,19,17,23,23,30,19,26,20,20,17,21,26,9,26,9,25,5,5,13,26,26,27,26,27,23,26,24,24,25,6,9,9,11,9,9,9,9,9,9,29,9,29,9,9,9,9,9,9,9,9,9,9,9,9,8,1655.txt
0,19,16,19,19,28,18,25,20,20,17,21,26,10,26,25,9,7,8,13,24,24,25,25,25,18,19,18,19,21,26,28,28,24,29,29,29,29,29,28,24,29,24,28,28,30,29,29,30,28,30,27,27,27,26,27,1657.txt
0,19,16,19,19,28,18,25,20,20,14,21,26,10,26,25,9,7,8,13,24,24,25,25,25,18,19,18,19,21,26,28,28,24,29,29,29,29,29,28,24,29,24,28,28,30,29,29,30,28,30,27,27,27,26,27,1660.txt
0,19,16,19,19,25,27,27,29,29,14,26,26,10,26,25,22,7,8,28,28,28,20,21,23,18,19,18,19,21,26,28,28,25,29,29,29,29,29,28,24,29,24,9,28,30,29,24,30,28,28,30,27,29,29,9,1662.txt
0,19,16,19,19,28,18,25,20,20,17,21,26,10,5,25,9,7,8,13,24,24,25,25,25,18,19,18,19,21,26,28,28,24,29,29,29,29,29,28,24,29,24,28,28,30,29,29,30,28,30,27,27,27,26,27,1663.txt
0,0,16,10,9,28,18,25,20,20,17,21,26,10,26,25,9,7,8,13,12,12,25,25,25,13,14,13,13,10,11,17,17,24,17,17,17,17,17,18,16,27,18,21,23,22,22,28,24,23,30,27,27,27,26,21,1666.txt
0,19,25,17,17,20,22,12,20,20,14,21,14,10,5,25,13,13,13,8,24,24,25,25,25,18,19,18,19,21,26,28,28,24,29,29,29,29,29,28,24,29,24,9,28,30,29,29,30,28,14,13,13,13,13,29,1667.txt
0,0,16,10,9,28,18,25,20,20,17,21,26,10,5,10,9,7,8,13,6,6,6,6,6,6,6,6,6,6,8,8,8,10,8,8,8,8,8,8,7,8,7,6,8,5,8,8,8,8,30,27,27,27,26,21,1669.txt
0,19,16,19,19,28,18,25,20,20,14,21,26,6,5,30,9,29,11,28,24,24,25,25,25,18,19,18,19,21,26,28,28,24,29,29,29,29,29,28,24,29,24,28,28,30,29,29,30,28,28,30,27,29,29,27,1671.txt
0,19,16,19,19,28,18,25,20,20,17,21,26,6,5,30,9,7,8,28,24,24,25,25,25,18,19,18,19,21,26,28,28,24,29,29,29,29,29,28,24,29,24,28,28,30,29,29,30,28,30,27,27,27,26,27,1673.txt
0,19,16,19,19,28,18,25,20,20,17,21,26,10,26,25,9,7,8,13,24,24,25,25,25,18,19,18,19,21,26,28,28,24,29,29,29,29,29,28,24,29,24,28,28,30,29,29,30,28,30,27,27,27,26,27,1676.txt
0,19,16,19,19,28,18,25,20,20,17,26,26,10,26,10,9,7,8,13,6,6,6,6,6,6,6,6,6,6,8,8,8,10,8,8,8,8,8,8,7,8,7,28,8,8,8,8,8,8,30,27,27,27,26,27,1677.txt
0,19,17,23,23,30,19,26,20,20,17,21,26,9,5,9,25,5,5,13,26,26,27,26,27,8,26,24,24,25,10,9,9,11,9,9,9,9,9,9,29,9,29,9,9,9,9,9,9,9,9,9,9,9,9,8,1680.txt
0,19,16,19,19,28,18,25,29,29,17,21,26,10,26,25,9,7,8,13,24,24,25,25,25,18,19,18,19,21,26,28,28,24,29,29,29,29,29,28,24,29,24,9,28,30,29,29,30,28,30,27,27,27,26,29,1682.txt
0,19,16,19,19,28,18,25,20,20,17,21,26,12,26,10,9,7,8,13,6,6,6,6,6,6,6,6,6,6,8,8,8,10,8,8,8,8,8,8,7,8,7,28,8,8,8,8,8,8,30,27,27,27,26,27,1684.txt
0,19,16,19,19,28,18,25,20,20,17,21,26,10,26,10,9,7,8,13,6,6,6,6,6,6,6,6,6,6,8,8,8,10,8,8,8,8,8,8,7,8,7,28,8,8,8,8,8,8,30,27,27,27,26,27,1686.txt
0,19,16,19,19,28,18,25,20,20,17,21,26,6,26,30,9,7,8,13,24,24,25,25,25,18,19,18,19,21,26,28,28,24,29,29,29,29,29,28,24,20,24,28,28,30,29,29,30,28,30,27,27,27,26,27,1692.txt
0,19,16,19,19,28,18,25,20,20,17,21,26,10,26,10,9,7,8,13,6,6,6,6,6,6,6,6,6,6,8,8,8,10,8,8,8,8,8,8,7,8,7,28,8,8,8,8,8,8,30,27,27,27,26,27,1694.txt
0,19,16,19,19,28,18,25,20,20,17,21,26,24,26,10,9,7,8,13,6,6,6,6,6,6,6,6,6,6,8,8,8,10,8,8,8,8,8,8,7,8,7,28,8,8,8,8,8,8,30,27,27,27,26,27,1696.txt
0,19,16,19,19,28,18,25,20,20,17,21,26,10,26,10,9,7,8,13,6,6,6,6,6,6,6,6,6,6,8,8,8,10,8,8,8,8,8,8,7,8,7,28,8,8,8,8,8,8,30,27,27,27,26,27,1698.txt
0,19,16,19,19,28,18,25,20,20,17,21,26,6,5,30,9,7,8,13,24,24,25,25,25,18,19,18,19,21,26,28,28,24,29,29,29,29,29,28,24,29,24,28,28,30,29,29,30,28,30,27,27,27,26,27,1699.txt
0,19,16,19,19,28,18,25,20,20,17,21,26,10,26,10,9,7,8,13,6,6,6,6,6,6,6,6,6,6,8,8,8,10,8,8,8,8,8,8,7,8,7,28,8,8,8,8,8,8,30,27,27,27,26,27,1701.txt
29,29,19,13,12,28,18,25,20,20,27,21,26,10,26,25,20,22,21,26,23,23,24,24,24,22,25,25,25,26,28,27,27,23,28,28,28,28,28,27,28,28,28,28,30,29,28,24,29,27,30,27,27,27,26,26,1705.txt
0,19,16,19,19,28,18,25,20,20,17,21,26,6,5,30,9,7,8,13,24,24,25,25,25,18,19,18,19,21,26,28,28,17,29,29,29,29,29,28,24,29,24,28,28,30,29,29,30,28,30,27,27,27,26,27,1707.txt
0,19,16,19,19,28,18,25,20,20,17,21,26,6,26,30,9,29,11,28,24,24,25,25,25,18,19,18,19,21,26,28,28,17,29,29,29,29,29,28,24,29,24,28,28,30,29,29,30,28,30,27,27,27,26,27,1709.txt
0,19,16,19,19,28,18,25,20,20,14,21,26,6,5,30,9,29,11,28,24,24,25,25,25,18,19,18,19,21,26,28,28,24,29,29,29,29,29,28,24,29,24,28,28,30,29,29,30,28,28,30,27,29,29,27,1715.txt
0,19,16,19,19,28,18,25,20,20,17,21,26,10,5,25,9,7,8,13,24,24,25,25,25,18,19,18,19,21,26,28,28,24,29,29,29,29,29,28,24,29,24,28,28,30,29,29,30,28,30,27,27,27,26,27,1717.txt
0,19,16,19,19,28,18,25,20,20,17,21,26,6,26,30,9,7,8,8,24,24,25,25,25,18,19,18,19,21,26,28,28,24,29,29,29,29,29,28,24,29,24,28,28,30,29,29,30,28,30,27,27,27,26,27,1720.txt
0,19,16,19,19,28,18,25,24,23,17,10,9,6,26,30,9,29,11,28,24,24,25,25,25,18,19,18,19,21,26,28,28,24,29,29,29,29,29,28,24,29,24,28,28,30,29,29,30,28,30,27,27,27,26,27,1723.txt
0,19,16,19,19,28,18,25,11,11,17,13,10,10,26,27,9,7,8,28,24,24,25,25,25,18,19,18,19,21,26,28,28,24,29,29,29,29,29,28,24,29,24,28,28,30,29,29,30,28,30,27,27,27,26,27,1725.txt
0,19,16,19,19,28,18,25,20,20,17,21,26,24,26,10,9,29,11,28,6,6,6,6,6,6,6,6,6,6,8,8,8,10,8,8,8,8,8,8,7,8,7,28,8,8,8,8,8,8,30,27,27,27,26,27,1727.txt
0,0,11,6,5,30,19,26,20,20,17,21,26,9,5,9,25,5,5,13,26,26,27,26,27,23,5,5,5,5,6,6,6,11,6,6,6,6,6,6,6,6,6,6,6,7,6,6,6,6,6,6,6,6,6,21,1728.txt
0,19,16,19,19,28,18,25,20,20,17,21,26,6,26,30,9,7,8,13,24,24,25,25,25,18,19,18,19,21,26,28,28,24,29,29,29,29,29,28,24,29,24,28,28,30,29,29,30,28,30,27,27,27,26,27,1732.txt
0,19,16,19,19,28,18,25,20,20,17,21,26,10,26,25,9,7,8,13,24,24,25,25,25,18,19,18,19,21,26,28,28,24,29,29,29,29,29,28,24,29,24,28,28,30,29,29,30,28,30,27,27,27,26,27,1734.txt
0,0,17,23,23,30,19,26,20,20,17,21,26,9,5,9,25,5,5,13,26,26,27,26,27,8,26,24,24,25,10,9,9,11,9,9,9,9,9,9,29,9,29,21,9,9,9,9,9,9,9,9,9,9,9,21,1735.txt
0,19,16,19,19,28,18,25,20,20,17,21,26,12,11,10,9,7,8,13,6,6,6,6,6,6,6,6,6,6,8,8,8,10,8,8,8,8,8,8,7,8,7,28,8,8,8,8,8,8,30,27,27,27,26,27,1737.txt
29,29,17,23,23,30,19,26,20,20,27,21,26,11,30,11,25,8,9,26,26,26,27,26,27,23,26,24,24,25,6,9,9,5,9,9,9,9,9,9,29,9,29,26,9,9,9,9,9,9,9,9,9,9,9,26,1739.txt
0,19,17,23,23,30,19,26,20,20,14,21,26,9,23,9,25,5,5,13,26,26,27,26,27,23,26,24,24,25,6,9,9,11,9,9,9,9,9,9,29,9,29,28,9,9,9,9,9,9,9,9,9,9,9,27,1744.txt
0,19,16,19,19,25,27,21,14,14,28,15,26,10,5,25,22,7,8,8,24,24,25,25,25,18,19,18,19,21,26,28,28,24,29,29,29,29,29,28,24,29,24,9,28,30,29,29,30,28,28,30,27,29,29,9,1745.txt
0,0,16,10,9,28,18,25,7,7,17,5,6,12,5,10,9,7,8,13,6,6,6,6,6,6,6,6,6,6,8,8,8,10,8,8,8,8,8,8,7,8,7,10,8,8,8,8,8,8,25,27,27,27,26,8,1747.txt
29,24,19,13,12,28,18,25,20,20,27,21,26,23,5,10,20,22,21,26,6,6,6,6,6,6,6,6,6,6,8,8,8,10,8,8,8,8,8,8,7,8,7,29,8,8,8,8,8,8,30,27,27,27,26,29,1749.txt
29,16,11,6,5,13,15,8,20,20,28,21,26,11,21,11,5,8,9,26,15,15,5,5,15,23,5,5,5,5,6,6,10,21,6,6,6,6,6,6,9,10,9,29,10,10,10,10,10,10,6,10,10,10,10,29,1751.txt
0,19,16,19,19,28,18,25,20,20,17,21,26,10,26,10,9,7,8,13,6,6,6,6,6,6,6,6,6,6,8,8,8,10,8,8,8,8,8,8,7,8,7,9,8,8,8,8,8,8,30,27,27,27,26,9,1755.txt
0,19,16,19,19,28,18,25,24,23,14,24,9,6,28,30,9,30,11,28,24,24,25,25,25,18,19,18,19,21,26,28,28,24,29,29,29,29,29,28,24,20,24,28,28,30,29,29,30,28,30,27,27,27,26,27,1759.txt
0,19,17,23,23,30,19,26,20,20,17,21,26,9,26,9,25,5,5,13,26,26,27,26,27,23,26,24,24,25,6,9,9,5,9,9,9,9,9,9,29,9,29,28,9,9,9,9,9,9,9,9,9,9,9,27,1762.txt
0,23,12,19,19,28,18,25,20,20,14,21,26,10,16,26,9,29,11,28,23,23,25,25,25,18,19,18,19,21,26,28,28,4,29,29,29,29,29,28,24,1,24,9,28,30,29,24,30,28,30,27,27,27,26,29,1764.txt
0,0,25,17,17,20,22,11,7,7,12,5,14,10,11,10,12,13,13,11,6,6,6,6,6,6,6,6,6,6,8,8,8,10,8,8,8,8,8,8,7,8,7,9,8,8,8,8,8,8,14,13,13,13,13,29,1765.txt
0,19,16,19,19,28,18,25,20,20,17,21,26,10,2,25,9,7,8,13,23,23,25,25,25,18,19,18,19,21,26,28,28,24,29,29,29,29,29,28,24,2,24,9,28,30,29,24,30,28,30,27,27,27,26,29,1769.txt
