0,1,2,3,4,5,6,7,8,9,10,11,12,13,14,15,16,17,18,19,20,21,22,23,24,25,26,27,28,29,30,31,32,33,34,35,filename
1,1,9,26,24,25,29,30,28,26,12,30,13,28,29,18,30,25,24,24,16,26,26,3,25,15,12,25,12,24,1,27,25,25,28,14,2.txt
28,0,9,26,24,11,6,9,10,12,3,19,16,20,18,8,30,25,9,9,25,28,29,30,6,24,23,22,22,22,1,27,25,25,28,4,5.txt
1,1,9,26,24,25,29,30,28,26,12,30,13,28,29,18,30,25,24,24,16,26,26,11,25,5,5,5,5,4,1,27,25,25,28,24,9.txt
1,0,9,26,24,25,29,30,28,26,12,30,13,28,29,18,30,25,24,24,6,6,6,6,6,24,23,22,22,22,1,27,25,25,28,24,12.txt
1,1,9,16,17,5,8,25,19,28,23,14,0,17,0,18,20,19,24,24,20,22,21,19,20,15,26,25,25,24,0,0,0,0,0,14,14.txt
28,0,15,26,24,25,0,0,0,26,12,30,13,28,29,18,30,3,0,0,25,28,29,30,6,15,30,27,25,26,1,27,25,25,28,14,16.txt
1,1,9,26,24,25,29,30,28,26,12,30,13,28,29,18,30,25,24,24,6,6,6,6,6,24,23,22,22,22,1,27,25,25,28,24,17.txt
1,0,9,26,24,25,29,30,28,26,12,30,13,28,29,18,30,25,24,24,16,26,26,11,25,15,30,27,25,26,1,27,25,25,28,14,21.txt
1,0,9,26,24,25,29,30,28,26,12,30,13,28,29,18,30,25,24,24,6,6,6,6,6,15,30,27,25,26,1,27,25,25,28,14,23.txt
1,0,9,26,24,25,29,30,28,26,12,30,13,28,29,18,30,25,24,24,6,6,6,6,6,24,23,22,22,22,1,27,25,25,28,24,24.txt
1,1,9,0,15,6,1,1,8,6,15,14,0,0,0,18,0,0,3,3,16,2,2,3,2,13,27,25,26,24,0,0,0,0,0,14,26.txt
1,0,9,26,24,25,29,30,28,26,12,30,13,28,29,18,30,25,24,24,6,6,6,6,6,24,23,22,22,22,1,27,25,25,28,24,28.txt
1,1,9,26,24,20,26,22,6,2,12,11,13,13,14,2,15,1,24,24,3,3,3,3,3,0,0,0,0,0,1,1,1,1,1,12,30.txt
28,30,15,26,24,25,4,4,5,26,12,30,13,28,29,18,30,10,0,0,29,18,20,28,30,15,30,25,25,24,12,21,11,11,26,14,32.txt
1,0,9,26,24,25,29,30,28,26,12,30,13,28,29,18,30,25,24,24,16,26,26,11,25,15,30,27,25,26,12,21,21,21,20,14,34.txt
1,0,9,26,24,25,29,30,28,26,12,30,13,28,29,18,30,25,24,24,16,26,26,11,25,24,23,22,22,22,1,27,25,25,28,24,36.txt
1,0,9,26,24,25,29,30,28,26,12,30,13,28,29,18,30,25,24,24,6,6,6,6,6,15,30,27,25,26,1,27,25,25,28,14,40.txt
1,24,9,26,24,25,29,30,28,26,12,30,13,28,29,18,30,25,24,24,16,26,26,11,25,15,27,25,26,24,1,27,25,25,28,14,41.txt
1,1,24,16,15,5,29,30,28,28,23,27,4,0,0,5,30,25,24,24,6,6,6,6,6,12,30,25,25,24,3,3,3,3,4,14,49.txt
1,0,9,26,24,25,29,30,28,26,12,30,13,28,29,18,30,25,24,24,16,26,26,11,25,15,30,25,25,24,1,27,25,25,28,14,53.txt
1,1,9,26,24,25,29,30,28,26,12,30,13,28,29,18,30,25,24,24,16,26,26,11,25,15,30,25,25,24,1,27,25,25,28,14,55.txt
1,1,9,26,24,25,29,30,28,26,12,30,13,28,29,18,30,25,24,24,6,6,6,6,6,15,27,25,26,24,1,27,25,25,28,14,57.txt
1,0,9,26,24,25,29,30,28,26,12,30,13,28,29,18,30,25,24,24,6,6,6,6,6,15,30,25,25,24,1,1,1,1,1,14,60.txt
1,12,9,26,24,25,29,30,28,26,12,30,13,28,29,18,30,25,3,3,16,26,26,11,25,15,27,25,26,24,12,5,5,5,3,14,61.txt
1,14,9,26,24,25,8,25,19,26,12,30,13,28,29,18,2,2,21,22,25,28,29,30,6,24,23,22,22,22,3,3,3,3,4,24,63.txt
1,14,9,26,24,25,29,30,28,26,12,30,13,28,29,18,30,25,3,3,16,26,26,11,25,15,30,27,25,26,12,5,5,5,5,14,65.txt
28,1,3,24,9,13,3,3,10,3,20,21,18,18,10,11,19,25,9,9,6,6,6,6,6,24,23,22,22,22,1,27,25,25,28,4,68.txt
1,1,9,26,24,25,29,30,28,26,12,30,13,28,29,18,30,25,24,24,16,26,26,11,25,5,5,5,5,4,1,27,25,25,28,24,71.txt
28,1,15,26,24,25,6,9,10,26,12,30,13,28,29,18,30,3,9,9,6,6,6,6,6,24,23,22,22,22,1,27,25,25,28,24,72.txt
1,1,24,16,15,5,8,25,19,28,23,14,8,17,0,5,21,20,24,24,20,22,21,19,20,15,12,25,12,24,7,7,7,7,7,14,76.txt
1,0,9,26,24,25,29,30,28,26,12,30,13,28,29,18,30,25,3,3,16,26,26,11,25,15,30,25,25,24,12,5,5,5,3,14,78.txt
1,0,9,26,24,25,29,30,28,26,12,30,13,28,29,18,30,25,24,24,6,6,6,6,6,15,30,25,25,24,1,27,25,25,28,14,81.txt
1,0,9,26,24,25,29,22,27,26,12,11,13,13,14,18,20,19,24,24,2,16,16,2,16,15,27,25,26,24,1,27,25,25,28,14,84.txt
1,0,9,26,24,25,29,30,28,26,12,30,13,28,29,18,30,25,24,24,6,6,6,6,6,15,27,25,26,24,1,27,25,25,28,14,86.txt
1,1,9,26,24,25,29,30,28,26,12,30,13,28,29,18,30,25,24,24,16,26,26,11,25,15,30,25,25,24,1,27,25,25,28,14,89.txt
1,0,9,26,24,25,29,30,28,26,12,30,13,28,29,18,30,25,28,28,6,6,6,6,6,15,29,25,28,24,1,27,25,25,28,14,90.txt
1,1,9,26,24,25,29,30,28,26,12,30,13,28,29,18,30,25,24,24,6,6,6,6,6,15,30,25,25,24,1,27,25,25,28,14,92.txt
1,0,9,26,24,25,29,30,28,26,12,30,13,28,29,18,30,25,3,3,16,26,26,11,25,15,27,25,26,24,20,20,20,20,3,14,95.txt
1,0,9,26,24,25,29,30,28,26,12,30,13,28,29,18,30,25,24,24,16,26,26,11,25,24,23,22,22,22,1,27,25,25,28,24,97.txt
1,0,9,26,24,25,29,30,28,26,12,30,13,28,29,18,30,25,24,24,6,6,6,6,6,15,30,25,25,24,1,27,25,25,28,14,98.txt
1,0,9,26,24,25,29,30,28,26,12,30,13,28,29,18,30,25,24,24,6,6,6,6,6,15,30,25,25,24,1,27,25,25,28,14,100.txt
1,0,9,26,24,25,29,30,28,26,12,30,13,28,29,18,30,25,24,24,16,26,26,11,25,15,30,25,25,24,1,27,25,25,28,14,102.txt
1,0,9,26,24,25,29,30,28,26,12,30,13,28,29,18,30,25,24,24,16,16,16,11,16,15,27,27,26,26,1,27,25,25,28,14,105.txt
1,1,9,26,24,25,29,30,28,26,12,30,13,28,29,18,30,25,24,24,6,6,6,6,6,13,30,25,25,24,2,2,2,2,2,14,108.txt
1,0,9,26,24,25,29,30,28,26,12,30,13,28,29,18,30,3,24,24,6,6,6,6,6,15,30,25,25,24,1,27,25,25,28,14,110.txt
1,0,9,26,24,25,29,30,28,26,12,30,13,28,29,18,30,25,24,24,6,6,6,6,6,15,30,27,25,26,1,27,25,25,28,14,112.txt
1,0,9,26,24,25,29,30,28,26,12,30,13,28,29,18,30,25,24,24,16,26,26,11,25,15,30,27,25,26,1,27,25,25,28,14,114.txt
1,0,9,26,24,25,29,30,28,26,12,30,13,28,29,18,30,25,24,24,16,26,26,11,25,15,30,25,25,24,1,27,25,25,28,14,116.txt
1,1,9,26,24,25,29,30,28,26,12,30,13,28,29,18,30,25,24,24,6,6,6,6,6,15,30,25,25,24,1,27,25,25,28,14,118.txt
28,30,9,26,24,11,6,9,10,26,3,29,3,3,3,18,30,8,9,9,1,1,1,1,1,5,5,5,5,4,1,27,25,25,28,24,121.txt
1,1,9,26,24,25,29,30,28,26,12,30,13,28,29,18,30,25,3,3,16,26,26,11,25,15,30,25,25,24,1,27,25,25,28,14,123.txt
1,0,9,26,24,25,29,30,28,26,12,30,13,28,29,18,30,25,24,24,16,26,26,11,25,15,30,25,25,24,1,27,25,25,28,14,124.txt
1,1,9,26,24,25,29,22,27,26,12,11,13,29,30,18,16,26,24,24,6,6,6,6,6,15,27,25,26,24,1,27,25,25,28,14,126.txt
1,0,9,26,24,25,29,30,28,26,12,30,13,28,29,18,30,25,24,24,6,6,6,6,6,15,30,27,25,26,1,27,25,25,28,14,128.txt
1,0,9,26,24,25,29,30,28,26,12,30,13,28,29,18,30,25,24,24,6,6,6,6,6,15,30,27,25,26,1,27,25,25,28,14,130.txt
1,0,9,26,24,25,29,30,28,26,12,30,13,28,29,18,30,25,24,24,6,6,6,6,6,24,23,22,22,22,1,27,25,25,28,24,132.txt
1,0,9,26,24,25,29,22,27,26,12,11,13,13,14,18,16,17,24,24,6,6,6,6,6,15,27,25,26,24,1,27,25,25,28,14,135.txt
1,28,9,6,5,5,29,30,28,28,23,14,20,0,0,5,30,3,24,24,6,6,6,6,6,15,12,25,12,24,7,7,7,7,7,14,137.txt
1,0,9,26,24,25,29,30,28,26,12,30,13,28,29,18,30,25,24,24,6,6,6,6,6,15,30,27,25,26,1,27,25,25,28,14,141.txt
1,1,9,26,24,25,29,30,28,26,28,26,25,26,25,25,25,27,24,24,6,6,6,6,6,21,27,25,26,24,1,27,25,25,28,14,144.txt
1,0,9,26,24,25,29,30,28,26,12,30,13,28,29,18,30,25,24,24,6,6,6,6,6,24,23,22,22,22,1,27,25,25,28,24,145.txt
1,0,9,26,24,25,29,30,28,26,12,30,13,28,29,18,30,25,24,24,6,6,6,6,6,15,6,6,6,7,1,27,25,25,28,5,147.txt
1,1,9,26,24,25,29,30,28,26,12,30,13,28,29,18,30,25,24,24,6,6,6,6,6,15,30,25,25,24,1,27,25,25,28,14,149.txt
1,1,9,26,24,25,29,30,28,26,12,30,13,28,29,18,30,25,24,24,6,6,6,6,6,15,30,25,25,24,1,27,25,25,28,14,151.txt
1,0,9,26,24,25,29,30,28,26,12,30,13,28,29,18,30,25,24,24,6,6,6,6,6,15,30,25,25,24,1,27,25,25,28,14,154.txt
1,1,24,16,15,28,1,1,13,6,23,27,4,8,5,5,20,19,24,24,20,22,21,19,20,12,30,25,25,24,21,15,15,15,17,14,156.txt
1,1,9,26,24,25,29,30,28,26,12,30,13,28,29,18,30,25,24,24,16,26,26,3,25,15,30,25,25,24,1,27,25,25,28,14,158.txt
1,0,9,26,24,25,29,30,28,26,12,30,13,28,29,18,30,25,24,24,16,26,26,11,25,15,30,25,25,24,19,5,5,5,20,14,160.txt
1,1,9,26,24,25,29,30,28,26,28,26,25,26,25,25,25,27,24,24,6,6,6,6,6,21,30,25,25,24,1,27,25,25,28,14,161.txt
1,0,9,26,24,25,29,30,28,26,12,30,13,28,29,18,30,25,3,3,16,26,26,3,25,15,27,25,26,24,12,5,5,5,3,14,163.txt
1,1,24,16,17,0,29,30,28,6,15,14,4,17,0,0,20,19,24,24,6,6,6,6,6,15,30,25,25,24,2,2,2,2,2,14,165.txt
1,1,9,26,24,25,1,1,8,26,12,30,13,28,29,18,20,19,24,24,16,2,2,11,2,12,30,27,25,26,2,2,2,2,2,14,167.txt
1,0,9,26,24,25,29,30,28,26,12,30,13,28,29,18,30,25,28,28,6,6,6,6,6,15,30,25,25,24,1,27,25,25,28,14,169.txt
1,1,9,26,24,25,29,30,28,26,12,30,13,28,29,18,30,25,24,24,6,6,6,6,6,24,23,22,22,22,1,27,25,25,28,24,171.txt
1,1,9,26,24,25,29,30,28,26,12,30,13,28,29,18,30,25,24,24,16,26,26,3,25,15,27,27,26,26,1,27,25,25,28,14,173.txt
1,1,9,26,24,25,29,30,28,26,12,30,13,28,29,18,30,25,24,24,6,6,6,6,6,15,30,25,25,24,1,27,25,25,28,14,175.txt
1,1,9,26,24,25,29,30,28,26,12,30,13,28,29,18,30,25,24,24,6,6,6,6,6,15,30,27,25,26,1,27,25,25,28,14,177.txt
1,0,9,26,24,25,29,30,28,26,12,30,13,28,29,18,30,25,24,24,6,6,6,6,6,15,30,27,25,26,1,1,1,1,1,14,179.txt
1,1,9,16,15,0,29,30,28,8,23,14,4,17,0,5,30,25,24,24,6,6,6,6,6,15,6,6,6,7,2,2,2,2,2,5,182.txt
1,0,9,26,24,25,29,30,28,26,12,30,13,28,29,18,30,25,24,24,6,6,6,6,6,15,27,27,26,26,1,1,1,1,1,14,184.txt
1,1,9,26,24,25,1,1,8,26,12,30,13,28,29,18,20,19,24,24,20,22,21,19,20,15,30,25,25,24,2,2,2,2,2,14,188.txt
1,1,9,26,24,25,29,30,28,26,12,30,13,28,29,18,30,25,24,24,16,26,26,11,25,15,30,27,25,26,1,27,25,25,28,14,189.txt
1,0,9,26,24,25,29,30,28,26,12,30,13,28,29,18,30,25,24,24,6,6,6,6,6,15,30,28,25,27,1,27,25,25,28,14,191.txt
28,14,3,24,9,13,6,9,10,15,20,21,15,18,10,1,19,25,9,9,28,25,25,26,29,19,17,22,17,17,12,5,5,5,3,24,194.txt
1,0,9,26,24,25,29,30,28,26,12,30,13,28,29,18,30,25,28,28,25,28,29,30,6,24,23,22,22,22,1,27,25,25,28,24,197.txt
1,0,9,26,24,25,29,30,28,26,12,30,13,28,29,18,30,25,24,24,6,6,6,6,6,15,30,25,25,24,1,27,25,25,28,14,199.txt
1,12,9,26,24,25,29,30,28,26,12,30,13,28,29,18,30,25,24,24,16,26,26,11,25,15,30,27,25,26,23,5,5,5,3,14,203.txt
1,0,9,26,24,25,29,30,28,26,12,30,13,28,29,18,30,3,24,24,6,6,6,6,6,24,23,22,22,22,1,27,25,25,28,24,204.txt
1,14,9,26,24,25,29,30,28,26,12,30,13,28,29,18,30,25,3,3,16,26,26,11,25,15,30,27,25,26,12,5,5,5,3,14,209.txt
1,0,9,26,24,25,29,30,28,26,28,26,25,26,25,25,25,27,24,24,19,20,24,18,24,24,23,22,22,22,1,27,25,25,28,24,210.txt
1,24,24,16,18,5,29,30,28,28,23,27,4,17,0,25,25,27,24,24,6,6,6,6,6,21,27,25,26,24,3,3,3,3,4,14,212.txt
1,0,9,26,24,25,29,30,28,26,12,30,13,28,29,18,30,25,24,24,16,26,26,11,25,15,30,25,25,24,1,27,25,25,28,14,214.txt
30,0,16,26,24,27,6,9,22,13,29,12,30,11,28,8,30,3,8,8,6,6,6,6,6,24,23,22,22,22,1,27,25,25,28,24,217.txt
1,0,15,26,24,25,0,0,0,26,12,30,13,28,29,18,30,3,0,0,6,6,6,6,6,15,12,25,12,24,1,27,25,25,28,14,219.txt
1,24,24,16,15,5,8,25,19,28,23,14,4,17,7,5,20,19,24,24,6,6,6,6,6,15,27,25,26,24,3,3,3,3,4,14,220.txt
1,0,9,26,24,25,29,30,28,26,12,30,13,28,29,18,30,25,24,24,6,6,6,6,6,15,27,25,26,24,1,27,25,25,28,14,222.txt
1,0,9,26,24,25,29,30,28,26,12,30,13,28,29,18,30,25,24,24,6,6,6,6,6,15,30,25,25,24,1,27,25,25,28,14,225.txt
1,1,9,26,24,25,29,30,28,26,12,30,13,28,29,18,30,25,24,24,6,6,6,6,6,15,30,25,25,24,1,27,25,25,28,14,227.txt
1,0,9,26,24,25,29,30,28,26,12,30,13,28,29,18,30,25,24,24,6,6,6,6,6,15,27,25,26,24,1,1,1,1,1,14,229.txt
1,0,9,26,24,25,29,30,28,26,12,30,13,28,29,18,30,25,24,24,6,6,6,6,6,15,30,25,25,24,1,27,25,25,28,14,231.txt
1,0,9,26,24,25,29,30,28,26,12,30,13,28,29,18,30,25,24,24,16,26,26,11,25,15,30,25,25,24,1,27,25,25,28,14,236.txt
1,0,9,26,24,25,29,30,28,26,12,30,13,28,29,18,30,25,24,24,16,26,26,11,25,15,30,25,25,24,1,27,25,25,28,14,241.txt
1,0,15,26,24,25,0,0,0,26,12,30,13,28,29,18,30,3,24,24,6,6,6,6,6,15,30,25,25,24,1,27,25,25,28,14,242.txt
1,1,9,26,24,25,29,30,28,26,12,30,13,28,29,18,30,25,24,24,6,6,6,6,6,24,23,22,22,22,1,27,25,25,28,24,245.txt
1,0,9,26,24,25,22,30,28,26,12,30,13,28,29,18,30,25,24,24,6,6,6,6,6,15,27,12,26,13,1,27,25,25,28,14,247.txt
1,0,9,26,24,25,29,30,28,26,12,30,13,28,29,18,30,25,24,24,25,28,29,30,6,15,30,25,25,24,1,27,25,25,28,14,249.txt
1,0,9,26,24,25,29,30,28,26,12,30,13,28,29,18,30,25,24,24,6,6,6,6,6,15,30,25,25,24,1,27,25,25,28,14,250.txt
1,0,9,26,24,25,29,30,28,26,12,30,13,28,29,18,30,25,24,24,6,6,6,6,6,15,30,27,25,26,1,27,25,25,28,14,252.txt
1,0,9,26,24,25,29,30,28,26,12,30,13,28,29,18,30,25,24,24,6,6,6,6,6,15,27,25,26,24,1,27,25,25,28,14,256.txt
1,0,9,26,24,20,26,28,6,2,12,30,13,28,29,2,15,1,24,24,6,6,6,6,6,0,0,0,0,0,1,1,1,1,1,12,258.txt
1,0,9,26,24,25,29,22,30,26,12,11,13,13,14,18,16,17,24,24,6,6,6,6,6,15,26,25,25,24,2,2,2,2,2,14,260.txt
1,1,9,26,24,25,29,30,28,26,12,30,13,28,29,18,30,25,24,24,6,6,6,6,6,15,27,25,26,24,1,27,25,25,28,14,261.txt
1,24,9,26,24,25,29,30,28,26,12,30,13,28,29,18,30,25,24,24,6,6,6,6,6,15,30,25,25,24,1,27,25,25,28,14,264.txt
1,1,24,16,17,5,29,22,27,28,23,14,4,0,0,5,16,3,24,24,6,6,6,6,6,13,26,25,25,24,7,7,7,7,7,14,269.txt
1,1,9,26,24,25,29,30,28,26,12,30,13,28,29,18,30,25,24,24,6,6,6,6,6,15,6,6,6,7,2,2,2,2,2,5,272.txt
1,1,9,26,24,25,29,30,28,26,12,30,13,28,29,18,30,25,24,24,6,6,6,6,6,15,30,25,25,24,1,27,25,25,28,14,274.txt
1,0,9,26,24,20,26,28,6,2,12,30,13,28,29,2,15,1,24,24,3,3,3,3,3,0,0,0,0,0,5,5,5,5,23,12,276.txt
1,0,9,26,24,25,29,30,28,26,12,30,13,28,29,18,30,25,24,24,6,6,6,6,6,15,27,25,26,24,1,27,25,25,28,14,280.txt
1,0,9,16,15,5,29,30,28,28,23,14,4,17,7,5,30,25,24,24,6,6,6,6,6,15,30,25,25,24,1,27,25,25,28,14,282.txt
1,0,9,26,24,25,29,30,28,26,12,30,13,28,29,18,30,25,24,24,16,26,26,11,25,15,30,25,25,24,1,27,25,25,28,14,283.txt
1,0,9,26,24,25,29,30,28,26,12,30,13,28,29,18,30,25,24,24,6,6,6,6,6,15,30,27,25,26,1,27,25,25,28,14,284.txt
1,0,9,26,24,25,29,30,28,26,12,30,13,28,29,18,30,25,24,24,6,6,6,6,6,15,30,25,25,24,1,27,25,25,28,14,286.txt
1,19,9,26,24,25,29,30,28,26,12,30,13,28,29,18,30,25,24,24,16,27,27,11,26,15,27,27,26,26,23,5,5,5,23,14,288.txt
1,0,9,26,24,25,29,30,28,26,12,30,13,28,29,18,30,25,3,3,16,26,26,11,25,15,30,25,25,24,1,27,25,25,28,14,290.txt
1,0,9,26,24,25,29,30,28,26,12,30,13,28,29,18,30,3,24,24,6,6,6,6,6,15,30,25,25,24,1,27,25,25,28,14,293.txt
1,12,9,26,24,25,29,30,28,26,12,30,13,28,29,18,30,25,24,24,16,16,16,3,16,15,27,25,26,24,12,5,5,5,3,14,295.txt
12,14,3,24,2,13,29,30,28,7,2,2,2,2,2,3,19,25,12,12,16,26,26,11,25,8,6,6,6,7,1,27,25,25,28,5,297.txt
1,0,9,26,24,25,29,30,28,26,12,30,13,28,29,18,30,25,3,3,16,26,26,11,25,15,30,25,25,24,1,27,25,25,28,14,300.txt
1,0,9,26,24,25,29,30,28,26,12,30,13,28,29,18,30,25,24,24,6,6,6,6,6,15,30,25,25,24,1,27,25,25,28,14,303.txt
1,1,9,26,24,25,29,22,27,26,12,11,13,13,14,18,16,17,3,3,16,26,26,11,25,15,27,12,26,13,1,27,25,25,28,14,305.txt
1,1,9,26,24,25,29,30,28,26,12,30,13,28,29,18,30,25,24,24,16,16,16,11,26,15,30,25,25,24,1,27,25,25,28,14,307.txt
1,0,9,26,24,25,29,30,28,26,12,30,13,28,29,18,30,25,24,24,16,26,26,11,25,15,30,25,25,24,1,27,25,25,28,14,311.txt
1,1,9,26,24,25,29,30,28,26,12,30,13,28,29,18,30,25,24,24,6,6,6,6,6,15,30,25,25,24,1,27,25,25,28,14,313.txt
1,14,9,26,24,25,29,30,28,26,12,30,13,28,29,18,30,25,24,24,6,6,6,6,6,24,23,22,22,22,1,27,25,25,28,24,318.txt
1,14,9,26,24,25,29,30,28,26,12,30,13,28,29,18,30,3,24,24,25,28,29,30,6,15,30,25,25,24,1,27,25,25,28,14,320.txt
1,14,3,24,9,13,29,30,28,17,20,21,15,18,27,1,19,25,16,15,16,26,26,11,25,24,23,22,22,22,12,5,5,5,23,19,322.txt
1,14,3,24,9,13,29,30,28,17,20,21,15,18,27,1,19,25,16,15,16,26,26,11,25,24,23,22,22,22,12,5,5,5,23,19,323.txt
1,1,9,26,24,25,29,22,27,26,12,11,13,13,14,18,16,17,24,24,6,6,6,6,6,15,27,25,26,24,1,1,1,1,1,14,324.txt
1,14,9,26,24,25,29,30,28,26,12,30,13,28,29,18,30,25,22,30,16,26,26,11,25,15,30,27,25,26,1,27,25,25,28,14,326.txt
1,14,9,26,24,25,29,30,28,26,12,30,13,28,29,18,30,25,3,3,16,26,26,11,25,15,30,25,25,24,12,5,5,5,3,14,328.txt
1,0,9,26,24,25,29,30,28,26,12,30,13,28,29,18,30,25,24,24,6,6,6,6,6,15,30,25,25,24,1,27,25,25,28,14,329.txt
1,0,9,26,24,25,29,30,28,26,12,30,13,28,29,18,30,3,24,24,6,6,6,6,6,15,30,25,25,24,1,27,25,25,28,14,333.txt
1,0,9,26,24,25,29,30,28,26,12,30,13,28,29,18,30,25,24,24,6,6,6,6,6,15,30,25,25,24,1,27,25,25,28,14,335.txt
1,1,9,26,24,25,29,30,28,26,12,30,13,28,29,18,30,25,24,24,6,6,6,6,6,15,12,25,12,24,1,1,1,1,1,14,337.txt
1,0,9,26,24,25,29,30,28,26,12,30,13,28,29,18,30,25,24,24,16,26,26,11,25,15,30,25,25,24,1,27,25,25,28,14,341.txt
1,0,9,26,24,25,29,30,28,26,12,30,13,28,29,18,30,25,24,24,16,26,26,11,25,15,30,27,25,26,1,27,25,25,28,14,342.txt
1,0,9,26,24,25,29,30,28,26,12,30,13,28,29,18,30,25,24,24,16,26,26,11,25,24,23,22,22,22,1,27,25,25,28,24,344.txt
1,1,9,26,24,25,29,30,28,26,12,30,13,28,29,18,30,25,24,24,6,6,6,6,6,15,30,25,25,24,1,27,25,25,28,14,347.txt
1,12,9,26,24,25,29,30,28,26,12,30,13,28,29,18,30,25,3,3,16,26,26,11,25,15,27,25,26,24,12,5,5,5,3,14,349.txt
1,12,9,26,24,25,29,30,28,26,12,30,13,28,29,18,30,25,24,24,16,26,26,11,25,15,27,25,26,24,12,5,5,5,3,14,352.txt
1,14,27,0,15,5,29,30,28,28,15,14,0,17,0,18,30,25,3,3,4,26,26,4,25,15,30,25,25,24,0,0,0,0,0,14,354.txt
1,0,9,26,24,25,29,30,28,26,12,30,13,28,29,18,30,25,28,28,6,6,6,6,6,15,30,25,25,24,1,27,25,25,28,14,358.txt
1,0,9,26,24,25,29,30,28,26,12,30,13,28,29,18,30,3,24,24,6,6,6,6,6,15,30,27,25,26,1,27,25,25,28,14,360.txt
1,1,9,26,24,25,29,30,28,26,12,30,13,28,29,18,30,25,3,3,16,26,26,11,25,15,30,27,25,26,12,5,5,5,3,14,362.txt
1,0,9,26,24,25,29,30,28,26,12,30,13,28,29,18,30,25,24,24,16,26,26,11,25,24,23,22,22,22,1,27,25,25,28,24,364.txt
1,1,9,26,24,25,29,30,28,26,12,30,13,28,29,18,30,25,24,24,6,6,6,6,6,15,27,25,26,24,1,1,1,1,1,14,365.txt
1,14,9,26,24,25,29,30,28,26,12,30,13,28,29,18,30,25,24,24,16,26,26,11,25,24,23,22,22,22,1,27,25,25,28,24,368.txt
1,14,9,26,24,25,29,30,28,26,12,30,13,28,29,18,30,25,24,24,16,26,26,11,25,15,30,25,25,24,1,27,25,25,28,14,369.txt
1,1,9,26,24,25,29,30,28,26,12,30,13,28,29,18,30,25,24,24,6,6,6,6,6,15,27,25,26,24,1,1,1,1,1,14,371.txt
1,24,4,3,9,8,29,30,28,3,20,21,1,18,1,1,8,25,24,24,16,26,26,11,25,15,11,11,11,7,0,0,0,0,0,11,375.txt
1,0,9,26,24,25,29,30,28,26,12,30,13,28,29,18,30,25,3,3,16,26,26,11,25,15,30,25,25,24,12,5,5,5,3,14,377.txt
1,1,9,26,24,25,29,30,28,26,12,30,13,28,29,18,30,25,24,24,6,6,6,6,6,15,27,25,26,24,1,27,25,25,28,14,380.txt
28,30,15,26,24,25,23,11,20,13,12,30,13,28,29,7,30,8,9,9,28,25,25,26,29,24,23,22,22,22,12,5,5,5,3,24,382.txt
1,0,9,26,24,25,29,30,28,26,12,30,13,28,29,18,30,25,24,24,6,6,6,6,6,15,27,25,26,24,1,27,25,25,28,14,385.txt
1,14,3,24,9,13,29,30,28,3,20,21,18,18,27,1,9,25,3,3,16,26,26,11,25,15,11,11,11,7,12,5,5,5,3,11,386.txt
1,14,9,26,24,25,29,30,28,26,12,30,13,28,29,18,30,25,24,24,16,26,26,11,25,24,23,22,22,22,1,27,25,25,28,24,387.txt
1,1,9,26,24,25,29,30,28,26,12,30,13,28,29,18,30,25,3,3,16,26,26,11,25,24,23,22,22,22,12,5,5,5,3,24,391.txt
1,0,9,26,24,25,29,30,28,26,12,30,13,28,29,18,30,25,24,24,16,16,16,3,16,15,12,25,12,24,19,5,5,5,3,14,394.txt
1,1,9,4,24,25,29,30,28,26,12,30,13,28,29,18,30,25,24,24,16,16,16,3,16,15,27,25,26,24,1,27,25,25,28,14,395.txt
1,0,9,26,24,25,29,30,28,26,12,30,13,28,29,18,30,25,24,24,6,6,6,6,6,15,30,25,25,24,1,1,1,1,1,14,397.txt
1,1,9,26,24,25,29,30,28,26,12,30,13,28,29,18,30,25,24,24,6,6,6,6,6,15,27,12,26,13,1,27,25,25,28,14,400.txt
1,0,9,26,24,25,29,30,28,26,12,30,13,28,29,18,30,25,24,24,6,6,6,6,6,15,30,27,25,26,2,2,2,2,2,14,402.txt
1,0,9,26,24,25,29,30,28,26,12,30,13,28,29,18,30,25,3,3,16,26,26,11,25,15,27,25,26,24,1,27,25,25,28,14,405.txt
1,1,9,26,24,25,29,30,28,26,12,30,13,28,29,18,30,25,24,24,6,6,6,6,6,15,30,25,25,24,1,27,25,25,28,14,407.txt
1,0,9,26,24,25,29,30,28,26,12,30,13,28,29,18,30,25,24,24,16,27,27,11,16,15,27,25,26,24,12,5,5,5,3,14,411.txt
1,14,9,26,24,25,29,30,28,26,12,30,13,28,29,18,30,25,3,3,16,26,26,11,25,15,30,27,25,26,12,5,5,5,3,14,413.txt
1,1,9,26,24,25,29,30,28,26,12,30,13,28,29,18,30,25,24,24,6,6,6,6,6,15,30,25,25,24,1,27,25,25,28,14,416.txt
1,1,9,26,24,25,29,30,28,26,12,30,13,28,29,18,30,25,24,24,6,6,6,6,6,5,5,5,5,4,1,27,25,25,28,24,417.txt
1,0,15,26,24,25,0,0,0,26,12,30,13,28,29,18,30,3,9,9,25,28,29,30,6,15,30,27,25,26,1,27,25,25,28,14,419.txt
1,1,9,26,24,25,29,30,28,26,12,30,13,28,29,18,30,25,24,24,6,6,6,6,6,15,6,6,6,9,1,27,25,25,28,5,421.txt
1,0,9,26,24,25,29,30,28,26,12,30,13,28,29,18,30,25,24,24,6,6,6,6,6,15,27,25,26,24,1,27,25,25,28,14,423.txt
1,0,9,26,24,25,29,30,28,26,12,30,13,28,29,18,30,25,3,3,16,16,16,11,16,15,27,25,26,24,12,5,5,5,3,14,425.txt
1,0,9,26,24,25,29,30,28,26,12,30,13,28,29,18,30,3,24,24,25,28,29,30,6,15,30,25,25,24,1,27,25,25,28,14,427.txt
1,14,9,26,24,25,29,30,28,26,12,30,13,28,29,18,30,3,24,24,6,6,6,6,6,15,30,12,25,13,1,27,25,25,28,14,430.txt
1,1,9,26,24,25,29,30,28,26,12,30,13,28,29,18,30,25,24,24,16,26,26,11,25,15,30,25,25,24,1,27,25,25,28,14,434.txt
1,1,9,26,24,25,29,30,28,26,12,30,13,28,29,18,30,25,24,24,6,6,6,6,6,15,30,25,25,24,1,27,25,25,28,14,436.txt
1,0,9,26,24,25,29,30,28,26,12,30,13,28,29,18,30,25,24,24,6,6,6,6,6,15,30,25,25,24,1,27,25,25,28,14,439.txt
1,0,9,26,24,25,29,30,28,26,12,30,13,28,29,18,30,25,24,24,6,6,6,6,6,15,30,27,25,26,1,27,25,25,28,14,444.txt
1,0,9,26,24,25,29,30,28,26,12,30,13,28,29,18,30,25,24,24,6,6,6,6,6,15,30,25,25,24,1,27,25,25,28,14,447.txt
1,0,9,26,24,25,6,9,10,26,12,30,13,28,29,18,30,13,24,24,8,9,9,8,9,15,30,27,25,26,1,27,25,25,28,14,449.txt
1,14,9,26,24,25,29,30,28,26,12,30,13,28,29,18,30,25,24,24,6,6,6,6,6,24,23,22,22,22,1,27,25,25,28,24,452.txt
1,0,9,26,24,25,29,30,28,26,12,30,13,28,29,18,30,25,3,3,16,26,26,11,25,15,27,25,26,24,1,27,25,25,28,14,454.txt
1,0,9,26,24,25,29,30,28,26,12,30,13,28,29,18,30,25,24,24,6,6,6,6,6,15,27,25,26,24,1,1,1,1,1,14,456.txt
1,1,9,26,24,25,29,30,28,26,12,30,13,28,29,18,30,25,24,24,6,6,6,6,6,15,30,25,25,24,2,2,2,2,2,14,458.txt
1,0,9,26,24,25,29,30,28,26,12,30,13,28,29,18,30,25,24,24,16,26,26,11,25,15,30,27,25,26,1,27,25,25,28,14,460.txt
1,1,9,26,24,25,29,30,28,26,12,30,13,28,29,18,30,25,23,14,16,26,26,11,25,24,23,22,22,22,1,27,25,25,28,24,463.txt
1,0,9,26,24,25,29,30,28,26,12,30,13,28,29,18,30,25,3,3,16,26,26,3,25,15,27,25,26,24,12,5,5,5,3,14,465.txt
1,0,9,26,24,25,29,30,28,26,12,30,13,28,29,18,30,25,24,24,16,16,16,3,16,15,27,25,26,24,1,27,25,25,28,14,469.txt
1,0,9,26,24,25,29,30,28,26,12,30,13,28,29,18,30,25,24,24,6,6,6,6,6,15,27,25,26,24,1,27,25,25,28,14,472.txt
1,14,9,26,24,25,29,30,28,26,12,30,13,28,29,18,30,25,3,3,16,26,26,11,25,15,30,27,25,26,12,5,5,5,15,14,473.txt
1,0,9,26,24,25,29,30,28,26,12,30,13,28,29,18,30,25,24,24,6,6,6,6,6,15,27,25,26,24,1,27,25,25,28,14,475.txt
1,0,9,26,24,25,29,30,28,26,28,26,25,26,25,25,25,27,24,24,6,6,6,6,6,21,27,27,26,26,1,27,25,25,28,14,477.txt
1,1,9,26,24,25,29,30,28,26,12,30,13,28,29,18,30,25,24,24,6,6,6,6,6,15,30,25,25,24,1,27,25,25,28,14,479.txt
1,1,9,26,24,25,29,30,28,26,12,30,13,28,29,18,30,25,3,3,16,26,26,11,25,15,30,25,25,24,1,27,25,25,28,14,481.txt
1,0,9,26,24,25,29,30,28,26,12,30,13,28,29,18,30,25,24,24,6,6,6,6,6,15,30,25,25,24,1,27,25,25,28,14,485.txt
1,0,9,26,24,25,29,22,27,26,12,11,13,13,14,18,16,15,24,24,6,6,6,6,6,15,26,27,25,26,1,27,25,25,28,14,487.txt
1,0,9,26,24,25,29,30,28,26,12,30,13,28,29,18,30,25,24,24,16,26,26,11,25,15,30,27,25,26,1,27,25,25,28,14,488.txt
1,0,9,26,24,25,29,30,28,26,12,30,13,28,29,18,30,25,24,24,6,6,6,6,6,15,30,25,25,24,1,27,25,25,28,14,491.txt
1,1,9,26,24,25,29,30,28,26,12,30,13,28,29,18,30,25,24,24,6,6,6,6,6,15,27,25,26,24,1,1,1,1,1,14,492.txt
1,0,9,26,24,25,29,30,28,26,12,30,13,28,29,18,30,25,3,3,16,16,16,11,16,15,30,25,25,24,11,5,5,5,3,14,494.txt
1,0,9,26,24,25,29,30,28,26,12,30,13,28,29,18,30,25,24,24,16,26,26,11,25,15,30,27,25,26,12,5,5,5,20,14,496.txt
1,12,9,26,24,25,29,22,27,26,12,11,13,13,14,18,16,17,24,24,25,28,29,30,6,15,6,6,6,7,1,1,1,1,1,5,498.txt
1,1,9,26,24,25,29,30,28,26,12,30,13,28,29,18,30,25,24,24,6,6,6,6,6,15,27,25,26,24,1,27,25,25,28,14,500.txt
1,12,9,26,24,25,29,30,28,26,12,30,13,28,29,18,30,25,24,24,16,16,16,3,16,15,27,27,26,26,1,27,25,25,28,14,502.txt
1,0,9,26,24,25,29,30,28,26,12,30,13,28,29,18,30,25,3,3,16,26,26,12,25,15,30,27,25,26,1,27,25,25,28,14,503.txt
1,0,9,26,24,25,29,30,28,26,12,30,13,28,29,18,30,25,24,24,16,26,26,3,25,15,27,25,26,24,1,1,1,1,1,14,505.txt
1,0,9,26,24,25,29,30,28,26,12,30,13,28,29,18,30,25,24,24,6,6,6,6,6,15,30,25,25,24,1,27,25,25,28,14,507.txt
1,0,9,26,24,25,29,30,28,26,12,30,13,28,29,18,30,25,22,14,16,26,26,11,25,24,23,22,22,22,1,27,25,25,28,24,510.txt
1,1,9,26,24,25,29,30,28,26,12,30,13,28,29,18,30,25,24,24,6,6,6,6,6,24,23,22,22,22,1,27,25,25,28,24,513.txt
1,1,9,16,15,5,29,30,28,28,23,14,4,17,0,5,30,25,24,24,6,6,6,6,6,15,27,27,26,26,1,27,25,25,28,14,516.txt
1,0,9,26,24,25,29,30,28,26,12,30,13,28,29,18,30,25,3,3,16,26,26,3,25,15,27,27,26,26,12,5,5,5,3,14,518.txt
28,0,15,26,24,11,6,9,10,26,13,12,14,14,15,18,30,4,9,9,28,25,25,26,29,5,5,5,5,4,1,27,25,25,28,4,521.txt
26,0,9,26,24,30,6,9,10,26,12,30,13,28,29,18,30,25,24,24,1,1,1,1,1,15,6,6,6,9,1,27,25,25,28,5,524.txt
1,12,9,26,24,25,29,30,28,26,12,30,13,28,29,18,30,25,24,24,16,26,26,3,25,15,30,25,25,24,12,5,5,5,20,14,527.txt
1,1,9,26,24,25,29,30,28,26,12,30,13,28,29,18,30,25,24,24,6,6,6,6,6,13,27,12,26,13,1,27,25,25,28,14,529.txt
1,1,9,26,24,25,29,30,28,26,12,30,13,28,29,18,30,25,24,24,6,6,6,6,6,15,30,27,25,26,1,27,25,25,28,14,530.txt
1,1,9,26,24,25,29,30,28,26,12,30,13,28,29,18,30,25,24,24,16,26,26,11,25,15,30,25,25,24,1,27,25,25,28,14,532.txt
1,0,9,26,24,25,29,30,28,26,12,30,13,28,29,18,30,25,24,24,16,16,16,3,16,15,27,25,26,24,12,5,5,5,3,14,534.txt
1,1,24,16,18,0,8,25,19,0,23,27,8,0,8,5,20,19,24,24,20,22,21,19,20,15,30,25,25,24,15,29,30,30,21,14,536.txt
1,1,9,26,24,25,29,30,28,26,12,30,13,28,29,18,30,25,24,24,6,6,6,6,6,15,30,27,25,26,1,27,25,25,28,14,538.txt
1,1,9,26,24,25,29,30,28,26,12,30,13,28,29,18,30,25,3,3,16,26,26,11,25,15,30,27,25,26,20,20,4,4,3,14,541.txt
1,1,24,16,15,6,9,12,8,6,15,27,4,17,7,24,7,9,24,24,6,6,6,6,6,15,27,25,26,24,2,2,2,2,2,14,543.txt
1,0,9,26,24,25,29,30,28,26,12,30,13,28,29,18,30,25,24,24,6,6,6,6,6,15,30,25,25,24,1,27,25,25,28,14,545.txt
1,0,9,26,24,25,29,30,28,26,12,30,13,28,29,18,30,25,24,24,6,6,6,6,6,15,30,25,25,24,1,27,25,25,28,14,549.txt
1,1,9,26,24,25,29,30,28,26,28,26,25,26,25,25,25,27,24,24,19,20,24,18,24,21,30,25,25,24,1,27,25,25,28,14,551.txt
1,1,9,26,24,25,29,30,28,26,12,30,13,28,29,18,30,25,24,24,6,6,6,6,6,15,27,25,26,24,1,1,1,1,1,14,554.txt
1,12,9,26,24,25,29,30,28,26,12,30,13,28,29,18,30,25,24,24,16,16,16,3,16,15,30,25,25,24,1,27,25,25,28,14,557.txt
1,24,9,26,24,25,29,30,28,26,12,30,13,28,29,18,30,25,24,24,16,26,26,11,25,15,27,25,26,24,19,5,5,5,3,14,558.txt
1,0,9,26,24,25,29,30,28,26,12,30,13,28,29,18,30,25,3,3,16,16,16,11,16,15,27,25,26,24,1,27,25,25,28,14,561.txt
1,0,3,24,9,13,29,30,28,17,8,7,11,10,10,1,19,25,3,3,16,26,26,11,25,24,23,22,22,22,12,5,5,5,23,24,564.txt
1,0,9,26,24,25,29,30,28,26,12,30,13,28,29,18,30,25,24,24,6,6,6,6,6,24,23,22,22,22,1,27,25,25,28,24,566.txt
1,0,9,26,24,25,29,30,28,26,12,30,13,28,29,18,30,25,24,24,16,26,26,3,25,15,30,25,25,24,1,27,25,25,28,14,568.txt
1,0,9,26,24,25,29,30,28,26,12,30,13,28,29,18,30,25,24,24,16,26,26,11,25,15,30,25,25,24,1,27,25,25,28,14,572.txt
1,0,9,26,24,25,29,30,28,26,12,30,13,28,29,18,30,25,24,24,6,6,6,6,6,15,27,27,26,26,1,1,1,1,1,14,574.txt
1,1,9,26,24,25,29,30,28,26,12,30,13,28,29,18,30,25,24,24,6,6,6,6,6,15,30,27,25,26,1,27,25,25,28,14,576.txt
1,0,9,26,24,25,29,30,28,26,12,30,13,28,29,18,30,25,24,24,6,6,6,6,6,15,27,25,26,24,1,27,25,25,28,14,578.txt
1,0,9,26,24,20,26,28,6,2,12,30,13,28,29,2,15,1,24,24,3,3,3,3,3,0,0,0,0,0,1,1,1,1,1,12,580.txt
1,1,9,26,24,25,29,22,27,26,12,11,13,13,14,18,16,17,24,24,6,6,6,6,6,15,27,27,26,26,1,27,25,25,28,14,582.txt
1,0,9,26,24,25,29,30,28,26,12,30,13,28,29,18,30,25,24,24,6,6,6,6,6,15,30,25,25,24,1,27,25,25,28,14,584.txt
1,0,9,26,24,25,29,30,28,26,12,30,13,28,29,18,30,25,24,24,16,16,16,3,16,15,30,25,25,24,1,27,25,25,28,14,586.txt
1,1,9,26,24,25,29,30,28,26,12,30,13,28,29,18,30,25,24,24,6,6,6,6,6,15,30,12,25,13,1,27,25,25,28,14,588.txt
1,1,9,26,24,25,29,30,28,26,12,30,13,28,29,18,30,25,24,24,16,26,26,11,25,24,23,22,22,22,1,27,25,25,28,24,591.txt
1,1,9,26,24,25,29,30,28,26,28,26,25,26,25,25,25,27,24,24,19,20,24,3,24,21,27,25,26,24,1,27,25,25,28,14,594.txt
1,0,9,26,24,25,29,30,28,26,12,30,13,28,29,18,30,25,24,24,6,6,6,6,6,24,23,22,22,22,1,27,25,25,28,24,596.txt
1,1,9,16,15,5,29,30,28,28,23,14,8,17,5,5,30,25,24,24,6,6,6,6,6,15,30,26,25,25,3,3,3,3,4,14,598.txt
1,0,9,26,24,25,29,30,28,26,12,30,13,28,29,18,30,25,24,24,6,6,6,6,6,15,30,25,25,24,1,27,25,25,28,14,600.txt
1,1,9,26,24,25,29,30,28,26,12,30,13,28,29,18,30,25,24,24,6,6,6,6,6,15,30,25,25,24,1,27,25,25,28,14,603.txt
1,1,9,26,24,25,29,30,28,26,12,30,13,28,29,18,30,25,24,24,16,16,16,3,16,15,6,6,6,9,1,27,25,25,28,5,604.txt
1,1,9,26,24,20,26,22,6,2,12,11,13,13,14,2,15,1,24,24,6,6,6,6,6,0,7,7,7,9,1,1,1,1,1,6,606.txt
1,0,9,26,24,25,29,30,28,26,12,30,13,28,29,18,30,25,24,24,6,6,6,6,6,15,30,25,25,24,1,27,25,25,28,14,607.txt
1,0,9,26,24,25,29,30,28,26,12,30,13,28,29,18,30,25,3,3,16,26,26,11,25,15,12,25,12,24,19,5,5,5,3,14,613.txt
1,1,9,26,24,25,29,30,28,26,12,30,13,28,29,18,20,19,24,24,6,6,6,6,6,15,27,25,26,24,2,2,2,2,2,14,615.txt
1,1,9,26,24,25,29,30,28,26,12,30,13,28,29,18,30,25,24,24,6,6,6,6,6,15,30,25,25,24,1,27,25,25,28,14,618.txt
1,0,9,26,24,25,29,30,28,26,12,30,13,28,29,18,30,3,24,24,6,6,6,6,6,15,30,25,25,24,1,27,25,25,28,14,621.txt
1,0,9,26,24,25,29,30,28,26,12,30,13,28,29,18,30,25,24,24,6,6,6,6,6,15,30,25,25,24,1,27,25,25,28,14,623.txt
1,0,9,26,24,25,29,30,28,26,12,30,13,28,29,18,30,25,24,24,16,26,26,11,25,15,6,6,6,7,1,27,25,25,28,5,624.txt
1,0,9,26,24,25,29,30,28,26,12,30,13,28,29,18,30,25,24,24,6,6,6,6,6,15,30,27,25,26,1,27,25,25,28,14,627.txt
1,0,9,26,24,25,29,30,28,26,12,30,13,28,29,18,30,25,24,24,6,6,6,6,6,15,30,25,25,24,1,27,25,25,28,14,628.txt
1,0,9,26,24,20,26,22,6,2,12,11,13,13,14,2,15,1,28,28,6,6,6,6,6,0,0,0,0,0,1,1,1,1,1,12,629.txt
28,5,15,26,24,11,4,11,5,13,13,12,14,14,15,7,30,3,9,9,25,28,29,30,6,24,23,22,22,22,1,27,25,25,28,24,631.txt
1,14,9,26,24,25,29,30,28,26,12,30,13,28,29,18,30,25,3,3,16,26,26,11,25,2,2,2,2,2,20,20,20,20,23,2,633.txt
1,0,9,26,24,25,29,30,28,26,12,30,13,28,29,18,30,25,24,24,6,6,6,6,6,15,27,25,26,24,1,27,25,25,28,14,635.txt
1,1,9,26,24,25,29,30,28,26,12,30,13,28,29,18,30,25,24,24,6,6,6,6,6,15,27,25,26,24,1,1,1,1,1,14,637.txt
1,0,9,26,24,25,29,30,28,26,12,30,13,28,29,18,30,25,24,24,6,6,6,6,6,24,23,22,22,22,1,27,25,25,28,24,642.txt
1,0,9,26,24,25,29,30,28,26,12,30,13,28,29,18,30,25,24,24,6,6,6,6,6,15,30,25,25,24,1,27,25,25,28,14,645.txt
17,14,9,26,24,25,6,9,10,12,12,30,13,28,29,8,30,25,17,17,28,25,25,26,29,24,23,22,22,22,12,5,5,5,3,24,647.txt
1,0,9,26,24,25,29,30,28,26,12,30,13,28,29,18,30,25,24,24,6,6,6,6,6,15,6,6,6,7,1,27,25,25,28,5,650.txt
1,1,9,26,24,25,29,30,28,26,12,30,13,28,29,18,30,25,3,3,16,26,26,11,25,24,23,22,22,22,23,5,5,5,3,24,652.txt
1,0,9,26,24,25,6,9,10,26,12,30,13,28,29,18,30,3,24,24,6,6,6,6,6,15,30,25,25,24,1,27,25,25,28,14,654.txt
1,0,9,26,24,25,29,30,28,26,12,30,13,28,29,18,30,25,24,24,16,26,26,11,25,15,27,25,26,24,1,27,25,25,28,14,657.txt
1,0,9,26,24,25,29,30,28,26,12,30,13,28,29,18,30,25,24,24,25,28,29,30,6,15,30,25,25,24,1,27,25,25,28,14,658.txt
28,0,15,30,17,4,6,9,10,4,0,0,4,0,7,4,14,4,9,9,22,13,14,21,14,15,30,25,25,24,1,27,25,25,28,14,662.txt
1,1,9,26,24,25,29,30,28,26,12,30,13,28,29,18,30,25,24,24,6,6,6,6,6,15,11,11,11,7,1,27,25,25,28,11,663.txt
1,0,9,26,24,25,29,30,28,26,12,30,13,28,29,18,30,25,24,24,6,6,6,6,6,15,30,25,25,24,1,27,25,25,28,14,665.txt
1,1,9,26,24,25,29,30,28,26,12,30,13,28,29,18,30,25,24,24,6,6,6,6,6,15,30,27,25,26,1,27,25,25,28,14,669.txt
1,1,26,26,24,25,1,1,8,26,12,30,13,28,29,18,20,19,24,24,6,6,6,6,6,15,30,25,25,24,2,2,2,2,2,14,671.txt
1,0,9,26,24,25,29,30,28,26,12,30,13,28,29,18,30,25,3,3,16,26,26,11,25,24,23,22,22,22,1,27,25,25,28,24,673.txt
1,0,9,26,24,25,29,30,28,26,12,30,13,28,29,18,30,25,24,24,16,26,26,11,25,15,30,25,25,24,1,27,25,25,28,14,675.txt
1,14,9,26,24,25,29,30,28,26,12,30,13,28,29,18,30,25,24,24,16,16,16,11,16,15,30,25,25,24,12,5,5,5,3,14,678.txt
1,0,9,26,24,25,29,30,28,26,12,30,13,28,29,18,30,25,24,24,6,6,6,6,6,15,27,12,26,13,1,1,1,1,1,14,680.txt
1,1,9,26,24,25,29,22,27,26,12,11,13,29,30,18,16,26,28,28,6,6,6,6,6,15,27,12,26,13,1,27,25,25,28,14,683.txt
1,0,9,26,24,25,29,30,28,26,12,30,13,28,29,18,30,3,24,24,6,6,6,6,6,15,30,27,25,26,1,27,25,25,28,14,685.txt
1,1,9,26,24,25,29,30,28,26,12,30,13,28,29,18,30,25,28,28,6,6,6,6,6,15,27,12,26,13,1,27,25,25,28,14,687.txt
1,0,9,26,24,25,29,30,28,26,12,30,13,28,29,18,30,25,24,24,6,6,6,6,6,15,30,27,25,26,1,1,1,1,1,14,689.txt
1,0,9,26,24,25,29,30,28,26,12,30,13,28,29,18,30,25,23,14,16,26,26,11,25,24,23,22,22,22,1,27,25,25,28,24,691.txt
1,14,9,26,24,25,29,30,28,26,12,30,13,28,29,18,30,25,24,24,16,26,26,11,25,24,23,22,22,22,1,27,25,25,28,24,695.txt
1,1,9,26,24,25,29,22,27,26,12,11,13,13,14,18,16,17,24,24,6,6,6,6,6,15,27,25,26,24,1,1,1,1,1,14,696.txt
1,1,9,26,24,25,29,30,28,26,12,30,13,28,29,18,30,25,24,24,16,26,26,11,25,15,27,25,26,24,1,27,25,25,28,14,700.txt
1,1,27,26,24,25,1,1,8,26,12,30,13,28,29,18,20,19,3,3,16,2,2,11,2,12,30,25,25,24,2,2,2,2,2,14,703.txt
28,30,9,26,24,11,6,9,10,26,3,19,16,20,18,18,30,3,9,9,6,6,6,6,6,24,23,22,22,22,1,27,25,25,28,24,705.txt
1,1,9,26,24,25,29,30,28,26,12,30,13,28,29,18,30,25,24,24,6,6,6,6,6,15,30,25,25,24,1,27,25,25,28,14,706.txt
1,0,9,26,24,25,29,30,28,26,12,30,13,28,29,18,30,25,24,24,16,27,27,11,26,15,27,25,26,24,1,27,25,25,28,14,709.txt
1,0,9,26,24,25,29,30,28,26,12,30,13,28,29,18,30,25,24,24,16,26,26,11,25,15,30,27,25,26,1,27,25,25,28,14,711.txt
1,0,9,26,24,25,29,30,28,26,12,30,13,28,29,18,30,25,24,24,6,6,6,6,6,24,23,22,22,22,1,27,25,25,28,24,712.txt
1,24,9,26,24,25,29,30,28,26,12,30,13,28,29,18,30,25,24,24,16,26,26,11,25,15,30,27,25,26,12,5,5,5,23,14,713.txt
28,0,24,16,15,4,0,0,0,4,0,0,4,17,0,4,30,3,18,18,25,28,29,30,6,14,15,16,4,16,6,6,6,6,6,13,716.txt
1,0,9,26,24,20,26,28,6,2,12,30,13,28,29,2,15,1,24,24,3,3,3,12,3,0,0,0,0,0,5,5,5,5,23,12,722.txt
1,0,9,26,24,25,29,30,28,26,12,30,13,28,29,18,30,25,24,24,6,6,6,6,6,15,12,25,12,24,1,27,25,25,28,14,724.txt
28,0,15,30,15,4,0,0,0,4,0,0,4,8,5,4,14,4,9,9,28,25,25,26,29,24,23,22,22,22,1,27,25,25,28,24,727.txt
1,1,9,26,24,25,29,30,28,26,12,30,13,28,29,18,30,25,3,3,16,26,26,11,25,15,30,12,25,13,12,5,5,5,5,14,728.txt
1,1,9,26,24,25,29,30,28,26,12,30,13,28,29,18,30,25,24,24,6,6,6,6,6,15,30,25,25,24,1,27,25,25,28,14,732.txt
1,0,9,26,24,25,29,30,28,26,12,30,13,28,29,18,30,25,24,24,6,6,6,6,6,15,27,25,26,24,1,27,25,25,28,14,734.txt
1,14,9,26,24,25,29,30,28,26,12,30,13,28,29,18,30,25,24,24,16,26,26,11,25,15,30,25,25,24,1,27,25,25,28,14,735.txt
1,0,9,26,24,25,29,30,28,26,12,30,13,28,29,18,30,25,24,24,6,6,6,6,6,15,30,25,25,24,1,27,25,25,28,14,737.txt
1,1,9,26,24,20,26,28,6,2,12,30,13,28,29,2,15,1,24,24,6,6,6,6,6,0,0,0,0,0,1,1,1,1,1,12,738.txt
1,0,9,26,24,25,29,30,28,26,12,30,13,28,29,18,30,25,24,24,6,6,6,6,6,15,30,25,25,24,1,27,25,25,28,14,741.txt
1,0,9,26,24,25,29,30,28,26,12,30,13,28,29,18,30,25,24,24,6,6,6,6,6,15,30,27,25,26,1,27,25,25,28,14,743.txt
1,1,9,26,24,25,29,30,28,26,12,30,13,28,29,18,30,25,24,24,6,6,6,6,6,15,30,25,25,24,1,27,25,25,28,14,747.txt
1,24,9,26,24,25,29,30,28,26,12,30,13,28,29,18,30,25,24,24,16,26,26,11,25,15,30,25,25,24,12,5,5,5,3,14,748.txt
1,1,9,26,24,25,29,30,28,26,12,30,13,28,29,18,30,25,24,24,6,6,6,6,6,12,27,25,26,24,1,27,25,25,28,14,751.txt
28,1,15,26,24,11,6,9,10,26,3,19,16,20,18,18,30,13,9,9,8,9,9,8,9,5,5,5,5,4,1,27,25,25,28,4,755.txt
1,1,9,26,24,25,29,30,28,26,12,30,13,28,29,18,30,25,24,24,16,26,26,11,25,24,23,22,22,22,1,27,25,25,28,24,756.txt
1,1,9,26,24,25,1,1,8,26,12,30,13,28,29,18,20,19,24,24,20,22,21,19,20,15,30,27,25,26,1,27,25,25,28,14,760.txt
1,0,9,26,24,25,29,30,28,26,12,30,13,28,29,18,30,25,24,24,25,28,29,30,6,24,23,22,22,22,1,27,25,25,28,24,765.txt
1,0,9,26,24,25,29,30,28,26,12,30,13,28,29,18,30,25,24,24,6,6,6,6,6,2,2,2,2,2,1,27,25,25,28,2,766.txt
1,0,9,4,24,25,29,30,28,26,12,30,13,28,29,18,30,25,24,24,6,6,6,6,6,15,27,27,26,26,1,1,1,1,1,14,768.txt
1,19,9,26,24,25,29,30,28,26,12,30,13,28,29,18,30,25,24,24,16,27,27,3,26,15,27,12,26,13,12,5,5,5,23,14,771.txt
1,1,9,26,24,25,29,30,28,26,12,30,13,28,29,18,30,25,24,24,6,6,6,6,6,15,30,27,25,26,1,27,25,25,28,14,772.txt
1,0,9,16,17,5,0,0,0,28,23,14,4,0,0,18,30,3,28,28,6,6,6,6,6,15,27,25,26,24,17,15,15,15,17,14,773.txt
1,1,9,26,24,25,29,30,28,26,12,30,13,28,29,18,30,25,24,24,6,6,6,6,6,15,30,25,25,24,1,27,25,25,28,14,775.txt
1,24,9,26,24,25,29,30,28,26,12,30,13,28,29,18,30,25,24,24,16,26,26,11,25,15,29,25,28,24,12,5,5,5,3,14,777.txt
1,0,9,26,24,25,29,30,28,26,12,30,13,28,29,18,30,25,22,14,16,26,26,11,25,24,23,22,22,22,1,27,25,25,28,24,779.txt
1,1,9,26,24,25,29,30,28,26,28,26,25,26,25,25,25,27,24,24,6,6,6,6,6,21,30,25,25,24,1,27,25,25,28,14,781.txt
1,1,9,26,24,25,29,30,28,26,12,30,13,28,29,18,30,25,24,24,6,6,6,6,6,15,30,25,25,24,1,27,25,25,28,14,785.txt
1,0,9,26,24,25,29,30,28,26,12,30,13,28,29,18,30,25,28,28,6,6,6,6,6,15,30,25,25,24,1,27,25,25,28,14,787.txt
1,1,9,26,24,25,29,30,28,26,12,30,13,28,29,18,30,25,24,24,6,6,6,6,6,15,30,25,25,24,1,27,25,25,28,14,790.txt
1,1,9,26,24,25,29,30,28,26,12,30,13,28,29,18,30,25,24,24,16,26,26,11,25,15,30,25,25,24,1,27,25,25,28,14,792.txt
1,0,9,26,24,25,29,30,28,26,12,30,13,28,29,18,30,25,3,3,16,26,26,11,25,15,30,25,25,24,1,27,25,25,28,14,796.txt
1,0,9,26,24,25,29,30,28,26,12,30,13,28,29,18,30,25,24,24,6,6,6,6,6,15,30,25,25,24,1,27,25,25,28,14,800.txt
1,0,9,26,24,25,29,30,28,26,12,30,13,28,29,18,30,25,24,24,6,6,6,6,6,15,30,25,25,24,1,27,25,25,28,14,802.txt
1,14,9,26,24,25,29,30,28,26,12,30,13,28,29,18,30,25,3,3,16,26,26,11,25,15,30,25,25,24,20,20,20,20,3,14,806.txt
1,0,9,26,24,25,29,30,28,26,12,30,13,28,29,18,30,25,24,24,6,6,6,6,6,24,23,22,22,22,1,27,25,25,28,24,807.txt
1,1,9,26,24,25,29,22,27,26,28,26,25,26,25,25,25,17,24,24,6,6,6,6,6,21,27,25,26,24,1,1,1,1,1,14,810.txt
1,1,9,26,24,25,29,30,28,26,12,30,13,28,29,18,30,25,24,24,6,6,6,6,6,15,30,25,25,24,1,1,1,1,1,14,813.txt
1,1,2,2,27,23,29,30,28,17,24,16,26,24,10,11,19,25,24,24,16,26,26,11,25,24,23,22,22,22,1,27,25,25,28,24,816.txt
1,0,9,26,24,25,29,30,28,26,12,30,13,28,29,18,30,3,24,24,6,6,6,6,6,24,23,22,22,22,1,27,25,25,28,24,817.txt
1,0,9,26,24,25,29,30,28,26,12,30,13,28,29,18,30,25,24,24,6,6,6,6,6,15,30,25,25,24,1,27,25,25,28,14,818.txt
1,28,15,26,24,25,0,0,0,26,12,30,13,28,29,18,30,3,9,9,6,6,6,6,6,15,30,25,25,24,1,27,25,25,28,14,821.txt
1,0,9,26,24,25,29,30,28,26,12,30,13,28,29,18,30,25,3,3,16,26,26,11,25,15,27,25,26,24,12,5,5,5,5,14,824.txt
1,0,9,26,24,25,29,30,28,26,12,30,13,28,29,18,30,25,24,24,6,6,6,6,6,15,30,25,25,24,1,27,25,25,28,14,827.txt
1,1,9,26,24,25,29,30,28,26,12,30,13,28,29,18,30,25,3,3,16,26,26,11,25,15,30,25,25,24,1,27,25,25,28,14,831.txt
1,0,9,26,24,25,29,30,28,26,12,30,13,28,29,18,30,25,24,24,6,6,6,6,6,15,27,27,26,26,2,2,2,2,2,14,832.txt
1,1,9,26,24,25,29,30,28,26,12,30,13,28,29,18,30,25,24,24,16,26,26,3,25,15,12,25,12,24,1,27,25,25,28,14,834.txt
1,1,9,26,24,25,29,30,28,26,12,30,13,28,29,18,30,25,24,24,6,6,6,6,6,2,2,2,2,2,1,27,25,25,28,2,836.txt
1,14,9,26,24,25,29,30,28,26,12,30,13,28,29,18,30,25,24,24,6,6,6,6,6,15,30,25,25,24,1,27,25,25,28,14,839.txt
1,0,9,26,24,25,29,30,28,26,28,26,25,26,25,25,25,27,24,24,6,6,6,6,6,21,30,27,25,26,1,27,25,25,28,14,842.txt
1,0,9,26,24,25,29,30,28,26,12,30,13,28,29,18,30,25,24,24,6,6,6,6,6,15,30,25,25,24,1,27,25,25,28,14,847.txt
1,0,9,26,24,25,29,30,28,26,12,30,13,28,29,18,30,3,24,24,6,6,6,6,6,15,30,25,25,24,1,27,25,25,28,14,851.txt
1,0,9,26,24,25,29,30,28,26,12,30,13,28,29,18,30,25,3,3,16,26,26,11,25,15,30,25,25,24,12,5,5,5,3,14,852.txt
1,21,9,26,24,25,29,30,28,26,12,30,13,28,29,18,30,25,24,24,6,6,6,6,6,15,30,25,25,24,1,27,25,25,28,14,855.txt
1,1,9,26,24,25,29,30,28,26,12,30,13,28,29,18,30,25,3,3,16,16,16,11,16,15,27,12,26,13,1,27,25,25,28,14,857.txt
26,1,8,11,29,0,8,25,19,8,19,20,4,19,0,5,20,19,24,24,6,6,6,6,6,8,7,7,7,12,2,2,2,2,2,6,859.txt
1,1,9,26,24,25,29,30,28,26,12,30,13,28,29,18,30,25,24,24,6,6,6,6,6,15,27,27,26,26,1,27,25,25,28,14,861.txt
1,0,9,26,24,25,29,30,28,26,12,30,13,28,29,18,30,25,24,24,6,6,6,6,6,15,30,27,25,26,1,27,25,25,28,14,864.txt
1,0,9,26,24,25,29,30,28,26,12,30,13,28,29,18,30,25,24,24,16,16,16,11,16,15,27,25,26,24,12,5,5,5,26,14,866.txt
1,14,9,26,24,25,29,30,28,26,12,30,13,28,29,18,30,25,3,3,16,26,26,11,25,12,30,25,25,24,12,5,5,5,3,14,868.txt
1,0,9,26,24,25,29,30,28,26,12,30,13,28,29,18,30,3,24,24,6,6,6,6,6,15,30,25,25,24,1,27,25,25,28,14,870.txt
1,1,9,26,24,20,26,28,6,2,12,30,13,28,29,2,15,1,24,24,6,6,6,6,6,0,0,0,0,0,1,27,25,25,28,12,872.txt
1,0,9,26,24,25,29,30,28,26,12,30,13,28,29,18,30,25,24,24,16,16,16,3,16,15,27,25,26,24,1,27,25,25,28,14,874.txt
1,1,9,26,24,25,29,30,28,26,12,30,13,28,29,18,30,25,24,24,6,6,6,6,6,15,30,27,25,26,1,27,25,25,28,14,879.txt
1,0,9,26,24,25,29,30,28,26,12,30,13,28,29,18,30,25,24,24,6,6,6,6,6,2,2,2,2,2,1,27,25,25,28,2,882.txt
1,0,9,26,24,25,29,30,28,26,12,30,13,28,29,18,30,25,24,24,16,26,26,11,25,15,30,25,25,24,1,27,25,25,28,14,884.txt
1,0,9,26,24,25,29,30,28,26,12,30,13,28,29,18,30,25,24,24,6,6,6,6,6,15,30,25,25,24,1,27,25,25,28,14,885.txt
1,0,9,26,24,25,29,30,28,26,12,30,13,28,29,18,30,25,24,24,6,6,6,6,6,15,30,25,25,24,1,27,25,25,28,14,886.txt
1,0,9,26,24,25,29,30,28,26,12,30,13,28,29,18,30,25,24,24,16,26,26,11,25,15,30,27,25,26,1,27,25,25,28,14,889.txt
1,0,9,26,24,25,29,30,28,26,12,30,13,28,29,18,30,3,24,24,6,6,6,6,6,15,30,25,25,24,1,27,25,25,28,14,891.txt
1,0,9,26,24,25,29,30,28,26,12,30,13,28,29,18,30,25,24,24,16,26,26,11,25,15,30,27,25,26,1,27,25,25,28,14,893.txt
1,0,9,26,24,25,29,30,28,26,12,30,13,28,29,18,30,25,24,24,16,26,26,3,25,15,27,27,26,26,1,27,25,25,28,14,896.txt
1,1,9,26,24,25,29,30,28,26,12,30,13,28,29,18,30,25,24,24,16,16,16,3,16,15,27,12,26,13,1,27,25,25,28,14,900.txt
1,0,9,26,24,25,29,30,28,26,12,30,13,28,29,18,30,25,24,24,6,6,6,6,6,15,30,25,25,24,1,27,25,25,28,14,902.txt
28,0,15,26,24,11,6,9,3,26,13,12,14,14,15,18,30,13,8,8,28,25,25,26,29,24,23,22,22,22,1,27,25,25,28,4,905.txt
1,0,9,26,24,25,29,30,28,26,12,30,13,28,29,18,30,25,24,24,6,6,6,6,6,15,27,25,26,24,1,27,25,25,28,14,907.txt
1,0,9,26,24,25,29,30,28,26,12,30,13,28,29,18,30,25,24,24,6,6,6,6,6,15,30,25,25,24,1,27,25,25,28,14,909.txt
1,0,9,26,24,25,29,30,28,26,12,30,13,28,29,18,30,25,24,24,16,26,26,11,25,15,27,27,26,26,1,27,25,25,28,14,911.txt
1,0,9,16,15,5,29,30,28,28,23,27,4,17,0,5,30,3,24,24,6,6,6,6,6,15,30,25,25,24,7,7,7,7,7,14,914.txt
1,1,9,26,24,25,29,30,28,26,12,30,13,28,29,18,30,25,24,24,16,26,26,11,25,24,23,22,22,22,1,27,25,25,28,4,917.txt
1,0,9,26,24,25,29,30,28,26,12,30,13,28,29,18,30,25,24,24,6,6,6,6,6,15,27,27,26,26,1,27,25,25,28,14,922.txt
1,14,9,26,24,25,29,30,28,26,28,26,25,26,25,25,25,27,24,24,19,20,24,18,24,21,30,25,25,24,1,27,25,25,28,14,924.txt
1,1,9,26,24,25,29,30,28,26,12,30,13,28,29,18,30,25,24,24,6,6,6,6,6,15,30,25,25,24,1,27,25,25,28,14,925.txt
1,0,9,26,24,25,29,22,27,26,12,11,13,29,30,18,16,26,24,24,16,26,26,3,25,15,26,25,25,24,1,27,25,25,28,14,926.txt
1,12,9,26,24,25,29,30,28,26,12,30,13,28,29,18,30,25,3,3,16,16,16,3,16,15,30,25,25,24,12,5,5,5,3,14,928.txt
1,1,9,26,24,25,29,30,28,26,12,30,13,28,29,18,30,25,24,24,16,26,26,11,25,15,30,25,25,24,1,27,25,25,28,14,930.txt
1,0,9,26,24,25,29,30,28,26,12,30,13,28,29,18,30,25,24,24,6,6,6,6,6,15,30,27,25,26,1,27,25,25,28,14,932.txt
1,0,3,24,2,13,29,30,28,17,2,2,2,2,2,3,19,25,24,24,26,29,30,6,6,5,5,5,5,4,1,27,25,25,28,24,935.txt
1,0,9,26,24,25,29,30,28,26,12,30,13,28,29,18,30,25,24,24,16,26,26,11,25,15,30,25,25,24,12,5,5,5,3,14,940.txt
1,1,9,26,24,25,29,30,28,26,12,30,13,28,29,18,30,25,24,24,6,6,6,6,6,15,27,25,26,24,1,27,25,25,28,14,942.txt
1,1,9,26,24,25,29,30,28,26,12,30,13,21,29,18,30,25,12,12,16,26,26,11,25,24,23,22,22,22,1,27,25,25,28,24,944.txt
1,1,9,26,24,25,29,30,28,26,12,30,13,28,29,18,30,25,24,24,6,6,6,6,6,15,30,25,25,24,1,27,25,25,28,14,946.txt
1,0,9,26,24,25,29,30,28,26,12,30,13,28,29,18,30,25,24,24,6,6,6,6,6,15,27,25,26,24,1,27,25,25,28,14,949.txt
1,24,9,26,24,25,29,30,28,26,12,30,13,28,29,18,30,3,24,24,6,6,6,6,6,15,30,25,25,24,1,27,25,25,28,14,951.txt
1,0,9,26,24,25,29,30,28,26,12,30,13,28,29,18,30,25,3,3,16,26,26,11,25,15,30,27,25,26,12,5,5,5,5,14,954.txt
1,0,9,16,0,5,29,30,28,5,23,5,4,17,7,5,30,25,28,28,6,6,6,6,6,15,27,25,26,24,3,3,3,3,4,14,956.txt
1,1,9,26,24,25,29,30,28,26,12,30,13,28,29,18,30,25,24,24,6,6,6,6,6,15,30,25,25,24,1,27,25,25,28,14,959.txt
1,0,9,26,24,25,29,30,28,26,12,30,13,28,29,18,30,25,24,24,6,6,6,6,6,15,30,25,25,24,1,27,25,25,28,14,961.txt
1,1,9,26,24,25,29,30,28,26,12,30,13,28,29,18,30,25,28,28,6,6,6,6,6,15,30,25,25,24,2,2,2,2,2,14,962.txt
1,0,9,26,24,25,29,30,28,26,12,30,13,28,29,18,30,25,24,24,6,6,6,6,6,15,30,25,25,24,1,27,25,25,28,14,964.txt
1,0,9,26,24,25,29,30,28,26,12,30,13,28,29,18,30,25,24,24,6,6,6,6,6,24,23,22,22,22,1,27,25,25,28,24,966.txt
1,1,9,26,24,25,29,30,28,26,12,30,13,28,29,18,30,25,24,24,6,6,6,6,6,15,30,27,25,26,1,27,25,25,28,14,968.txt
1,1,9,26,24,25,29,30,28,26,12,30,13,28,29,18,30,3,28,28,6,6,6,6,6,15,27,25,26,24,1,27,25,25,28,14,970.txt
1,0,9,26,24,25,29,30,28,26,12,30,13,28,29,18,30,25,24,24,6,6,6,6,6,15,30,25,25,24,1,27,25,25,28,14,974.txt
1,0,9,26,24,25,29,30,28,26,12,30,13,28,29,18,30,25,24,24,6,6,6,6,6,15,27,25,26,24,2,2,2,2,2,14,975.txt
1,0,9,26,24,25,29,30,28,13,12,30,13,28,29,8,30,25,24,24,16,26,26,11,25,24,23,22,22,22,1,27,25,25,28,24,979.txt
1,0,9,26,24,25,29,30,28,13,12,30,13,28,29,17,30,25,24,24,16,26,26,11,25,24,23,22,22,22,1,27,25,25,28,24,981.txt
1,1,9,26,24,25,29,30,28,26,12,30,13,28,29,18,30,25,24,24,6,6,6,6,6,15,27,12,26,13,1,27,25,25,28,14,987.txt
1,0,9,26,24,25,29,30,28,26,12,30,13,28,29,18,30,25,24,24,6,6,6,6,6,15,30,25,25,24,1,27,25,25,28,14,989.txt
1,1,3,24,9,13,1,1,8,17,20,21,18,18,10,11,2,12,11,11,16,2,2,11,2,1,1,1,1,1,0,0,0,0,0,1,994.txt
1,0,9,26,24,25,29,30,28,26,12,30,13,28,29,18,30,25,24,24,6,6,6,6,6,15,30,12,25,13,1,27,25,25,28,14,996.txt
1,1,9,26,24,25,22,30,28,26,12,30,13,28,29,18,30,25,24,24,6,6,6,6,6,15,27,12,26,13,1,27,25,25,28,14,998.txt
1,1,9,26,24,25,29,30,28,26,12,30,13,28,29,18,30,25,24,24,6,6,6,6,6,24,23,22,22,22,1,27,25,25,28,24,1002.txt
1,14,24,16,15,5,29,30,28,28,23,14,8,17,0,5,30,25,24,24,6,6,6,6,6,12,11,11,11,7,15,19,19,19,30,11,1005.txt
1,1,9,26,24,25,29,30,28,26,12,30,13,28,29,18,30,25,24,24,6,6,6,6,6,1,9,9,9,30,2,2,2,2,2,1,1008.txt
1,1,9,26,24,25,29,30,28,26,12,30,13,28,29,18,30,25,24,24,6,6,6,6,6,15,30,25,25,24,1,27,25,25,28,14,1010.txt
1,1,9,26,24,25,29,30,28,26,12,30,13,28,29,18,30,25,24,24,6,6,6,6,6,15,30,25,25,24,1,27,25,25,28,14,1013.txt
1,1,9,26,24,25,29,30,28,26,12,30,13,28,29,18,30,25,24,24,6,6,6,6,6,15,30,25,25,24,1,27,25,25,28,14,1015.txt
1,0,9,26,24,25,29,30,28,26,12,30,13,28,29,18,30,25,24,24,6,6,6,6,6,15,6,6,6,7,1,27,25,25,28,5,1018.txt
28,9,2,15,27,23,6,9,3,17,8,7,11,10,10,14,19,13,9,9,8,9,9,8,9,15,30,25,25,24,1,27,25,25,28,14,1020.txt
1,14,9,26,24,25,29,30,28,26,12,30,13,28,29,18,30,4,24,24,16,26,26,11,25,24,23,22,22,22,1,27,25,25,28,24,1022.txt
1,0,9,26,24,25,29,30,28,26,12,30,13,28,29,18,30,25,24,24,6,6,6,6,6,15,30,27,25,26,1,27,25,25,28,14,1025.txt
1,1,9,26,24,25,29,30,28,26,12,30,13,28,29,18,30,25,24,24,6,6,6,6,6,24,23,22,22,22,1,27,25,25,28,24,1027.txt
28,14,15,26,24,25,0,0,0,26,12,30,13,28,29,18,30,4,9,9,22,13,14,17,14,24,23,22,22,22,19,5,5,5,23,24,1030.txt
1,0,9,26,24,25,29,30,28,26,12,30,13,28,29,18,30,25,24,24,6,6,6,6,6,15,30,25,25,24,1,27,25,25,28,14,1036.txt
1,0,9,26,24,25,29,30,28,26,12,30,13,28,29,18,30,25,24,24,6,6,6,6,6,15,30,25,25,24,1,27,25,25,28,14,1041.txt
1,0,9,26,24,25,29,30,28,26,12,30,13,28,29,18,30,25,24,24,16,26,26,11,25,15,6,6,6,7,19,5,5,5,3,5,1043.txt
1,14,9,26,24,25,29,30,28,26,12,30,13,28,29,18,30,25,24,24,25,28,29,30,6,15,30,25,25,24,1,27,25,25,28,14,1045.txt
1,1,9,26,24,25,29,30,28,26,12,30,13,28,29,18,30,25,24,24,6,6,6,6,6,15,30,25,25,24,1,27,25,25,28,14,1046.txt
1,14,9,26,24,25,29,30,28,26,12,30,13,28,29,18,30,25,3,3,16,26,26,11,25,2,2,2,2,2,20,20,20,20,3,2,1048.txt
1,1,9,26,24,25,29,30,28,26,12,30,13,28,29,18,30,25,28,28,6,6,6,6,6,24,23,22,22,22,1,27,25,25,28,24,1051.txt
1,1,9,26,24,25,29,30,28,26,12,30,13,28,29,18,30,25,24,24,6,6,6,6,6,15,27,27,26,26,1,27,25,25,28,14,1054.txt
1,1,9,26,24,25,29,30,28,26,12,30,13,28,29,18,30,25,24,24,6,6,6,6,6,24,23,22,22,22,1,27,25,25,28,24,1057.txt
1,0,9,26,24,25,29,30,28,26,12,30,13,28,29,18,30,25,24,24,6,6,6,6,6,15,27,25,26,24,1,27,25,25,28,14,1059.txt
1,1,9,26,24,25,29,30,28,26,12,30,13,28,29,18,30,25,24,24,6,6,6,6,6,15,30,27,25,26,1,27,25,25,28,14,1060.txt
1,0,9,26,24,25,29,30,28,26,12,30,13,28,29,18,30,25,24,24,6,6,6,6,6,24,23,22,22,22,1,27,25,25,28,24,1064.txt
1,0,9,26,24,25,29,30,28,26,12,30,13,28,29,18,30,25,28,28,6,6,6,6,6,15,27,27,26,26,1,27,25,25,28,14,1069.txt
1,0,9,26,24,25,29,30,28,26,12,30,13,28,29,18,30,3,24,24,6,6,6,6,6,10,9,9,9,30,2,2,2,2,2,13,1071.txt
1,0,9,26,24,25,29,30,28,26,12,30,13,28,29,18,30,25,24,24,6,6,6,6,6,15,30,25,25,24,1,27,25,25,28,14,1073.txt
28,14,15,26,24,25,4,11,5,26,12,30,13,28,29,18,30,4,8,8,28,25,25,26,29,24,23,22,22,22,1,27,25,25,28,24,1075.txt
1,0,9,26,24,25,29,30,28,26,12,30,13,28,29,18,30,25,24,24,6,6,6,6,6,15,30,25,25,24,1,27,25,25,28,14,1076.txt
1,0,9,26,24,25,29,22,27,26,12,11,13,29,30,18,16,26,24,24,16,26,26,11,25,15,27,25,26,24,1,27,25,25,28,14,1078.txt
1,0,9,26,24,25,29,30,28,26,12,30,13,28,29,18,30,25,24,24,6,6,6,6,6,15,30,27,25,26,1,27,25,25,28,14,1080.txt
1,0,15,26,24,25,0,0,0,26,12,30,13,28,29,18,30,3,24,24,6,6,6,6,6,6,10,10,10,11,1,27,25,25,28,10,1082.txt
1,0,9,26,24,25,29,30,28,26,12,30,13,28,29,18,30,3,24,24,6,6,6,6,6,15,30,25,25,24,1,27,25,25,28,14,1084.txt
1,0,9,26,24,25,29,30,28,26,12,30,13,28,29,18,30,25,24,24,6,6,6,6,6,15,30,25,25,24,1,27,25,25,28,14,1086.txt
28,0,15,26,24,25,0,0,0,26,12,30,13,28,29,18,30,4,9,9,1,1,1,1,1,24,23,22,22,22,19,5,5,5,23,24,1088.txt
1,0,9,26,24,25,29,30,28,26,12,30,13,28,29,18,30,25,24,24,6,6,6,6,6,15,30,27,25,26,1,27,25,25,28,14,1090.txt
1,0,9,26,24,25,29,22,27,26,12,11,13,13,14,18,16,17,24,24,16,16,16,11,16,15,27,25,26,24,4,4,4,4,5,14,1093.txt
1,1,9,26,24,25,1,1,8,26,12,30,13,28,29,18,20,19,24,24,20,22,21,19,20,15,30,25,25,24,1,27,25,25,28,14,1094.txt
1,14,9,26,24,25,29,30,28,26,12,30,13,28,29,18,30,25,24,24,16,26,26,11,25,24,23,22,22,22,12,5,5,5,23,24,1096.txt
1,1,26,26,24,25,1,1,8,26,28,26,25,26,25,25,20,19,24,24,20,22,21,19,20,21,27,25,26,24,2,2,2,2,2,14,1101.txt
1,1,9,26,24,25,29,30,28,26,12,30,13,28,29,18,30,25,24,24,6,6,6,6,6,24,23,22,22,22,1,27,25,25,28,24,1105.txt
1,1,9,26,24,25,29,30,28,26,12,30,13,28,29,18,30,25,24,24,6,6,6,6,6,15,30,25,25,24,1,27,25,25,28,14,1106.txt
28,9,9,26,24,25,6,9,10,26,12,30,13,28,29,18,30,13,9,9,8,9,9,8,9,5,5,5,5,4,1,27,25,25,28,4,1108.txt
1,1,9,26,24,25,1,1,8,26,12,30,13,28,29,18,20,19,24,24,20,22,21,19,20,15,30,25,25,24,2,2,2,2,2,14,1109.txt
1,1,9,26,24,25,29,30,28,26,12,30,13,28,29,18,30,25,24,24,6,6,6,6,6,15,27,25,26,24,1,27,25,25,28,14,1114.txt
1,0,9,26,24,25,29,30,28,26,12,30,13,28,29,18,30,25,24,24,16,26,26,11,25,24,23,22,22,22,12,5,5,5,3,24,1117.txt
1,0,9,26,24,25,29,30,28,26,12,30,13,28,29,18,30,25,24,24,6,6,6,6,6,15,30,25,25,24,1,27,25,25,28,14,1118.txt
1,0,9,26,24,25,29,30,28,26,12,30,13,28,29,18,30,25,24,24,6,6,6,6,6,15,30,27,25,26,1,27,25,25,28,14,1121.txt
1,12,9,26,24,25,1,1,8,26,12,30,13,28,29,18,20,19,3,3,16,5,5,12,5,15,30,25,25,24,12,5,5,5,3,14,1122.txt
1,1,9,26,24,25,29,30,28,26,12,30,13,28,29,18,30,3,24,24,6,6,6,6,6,15,30,25,25,24,1,27,25,25,28,14,1124.txt
1,1,9,26,24,25,29,30,28,26,12,30,13,28,29,18,30,25,24,24,6,6,6,6,6,15,30,25,25,24,1,27,25,25,28,14,1126.txt
1,0,9,26,24,25,29,30,28,26,12,30,13,28,29,18,30,25,24,24,16,26,26,11,25,2,2,2,2,2,1,27,25,25,28,2,1128.txt
1,0,9,26,24,25,29,30,28,26,12,30,13,28,29,18,30,25,24,24,6,6,6,6,6,15,30,25,25,24,1,27,25,25,28,14,1130.txt
1,1,9,26,24,25,29,30,28,26,12,30,13,28,29,18,30,25,24,24,6,6,6,6,6,15,30,25,25,24,1,27,25,25,28,14,1135.txt
1,24,9,26,24,25,29,30,28,26,12,30,13,28,29,18,30,25,24,24,16,26,26,3,25,15,27,25,26,24,1,27,25,25,28,14,1136.txt
1,0,9,26,24,25,29,30,28,26,12,30,13,28,29,18,30,25,24,24,16,26,26,11,25,15,30,27,25,26,1,27,25,25,28,14,1137.txt
1,1,9,26,24,25,29,30,28,26,12,30,13,28,29,18,30,25,24,24,6,6,6,6,6,15,30,25,25,24,1,27,25,25,28,14,1139.txt
1,0,9,26,24,25,29,30,28,26,12,30,13,28,29,18,30,25,24,24,16,26,26,11,25,15,30,25,25,24,1,27,25,25,28,14,1141.txt
1,0,9,26,24,25,29,30,28,26,12,30,13,28,29,18,30,25,24,24,16,26,26,11,25,24,23,22,22,22,1,27,25,25,28,24,1143.txt
1,0,9,26,24,25,29,30,28,26,12,30,13,28,29,18,30,25,24,24,6,6,6,6,6,15,30,28,25,27,1,27,25,25,28,14,1147.txt
1,0,9,26,24,25,29,30,28,26,12,30,13,28,29,18,30,25,24,24,6,6,6,6,6,15,30,25,25,24,1,27,25,25,28,14,1149.txt
1,14,9,26,24,25,29,30,28,13,12,30,13,28,29,8,30,25,24,24,25,28,29,30,6,24,23,22,22,22,1,27,25,25,28,24,1151.txt
1,1,9,26,24,25,29,30,28,26,12,30,13,28,29,18,30,25,24,24,6,6,6,6,6,15,30,25,25,24,1,27,25,25,28,14,1152.txt
1,0,9,26,24,25,29,30,28,26,12,30,13,28,29,18,30,25,24,24,6,6,6,6,6,15,27,25,26,24,1,27,25,25,28,14,1156.txt
1,0,9,26,24,25,29,30,28,26,12,30,13,28,29,18,30,25,24,24,6,6,6,6,6,15,30,27,25,26,1,27,25,25,28,14,1158.txt
1,0,9,26,24,25,29,30,28,26,12,30,13,28,29,18,30,25,24,24,6,6,6,6,6,24,23,22,22,22,1,27,25,25,28,24,1161.txt
1,0,9,26,24,25,29,30,28,26,12,30,13,28,29,18,30,25,24,24,6,6,6,6,6,15,30,25,25,24,1,27,25,25,28,14,1166.txt
1,1,9,26,24,25,29,30,28,26,12,30,13,28,29,18,30,25,24,24,16,26,26,11,25,15,30,27,25,26,1,27,25,25,28,14,1168.txt
12,0,3,24,9,13,29,30,28,15,20,21,27,18,27,11,3,25,11,11,16,19,18,11,18,8,6,6,6,7,1,27,25,25,28,5,1169.txt
1,0,9,26,24,25,29,30,28,13,12,30,13,28,29,7,3,25,3,3,16,26,26,11,25,24,23,22,22,22,0,0,0,0,0,24,1171.txt
1,1,24,16,17,5,8,25,19,28,23,27,4,17,0,18,20,19,24,24,20,22,21,19,20,15,30,25,25,24,3,3,3,3,4,14,1175.txt
1,0,9,26,24,25,29,30,28,26,12,30,13,28,29,18,30,25,24,24,6,6,6,6,6,15,27,25,26,24,1,27,25,25,28,14,1177.txt
1,14,9,26,24,25,29,30,28,26,12,30,13,28,29,18,30,25,24,24,6,6,6,6,6,15,30,25,25,24,1,27,25,25,28,14,1179.txt
1,0,9,26,24,25,29,30,28,26,12,30,13,28,29,18,30,3,24,24,6,6,6,6,6,24,23,22,22,22,1,27,25,25,28,24,1183.txt
26,1,9,26,24,25,29,30,28,26,12,30,13,28,29,18,30,25,3,3,16,26,26,11,25,15,6,6,6,7,1,27,25,25,28,5,1184.txt
26,0,9,26,24,25,29,30,28,26,12,30,13,28,29,18,30,25,24,24,6,6,6,6,6,8,6,6,6,7,1,27,25,25,28,5,1190.txt
1,0,9,26,24,25,29,30,28,26,12,30,13,28,29,18,30,25,23,14,16,26,26,11,25,24,23,22,22,22,1,27,25,25,28,24,1192.txt
1,0,9,26,24,25,29,30,28,26,28,26,25,26,25,25,25,27,24,24,6,6,6,6,6,21,30,25,25,24,1,27,25,25,28,14,1194.txt
1,0,9,26,24,25,29,30,28,26,12,30,13,28,29,18,30,25,3,3,16,26,26,11,25,15,30,25,25,24,12,5,5,5,3,14,1196.txt
1,1,9,26,24,25,29,30,28,26,12,30,13,28,29,18,30,25,3,3,16,26,26,11,25,15,30,25,25,24,1,27,25,25,28,14,1197.txt
1,0,9,26,24,25,29,30,28,26,12,30,13,28,29,18,30,4,24,24,16,26,26,11,25,24,23,22,22,22,1,27,25,25,28,24,1199.txt
1,0,9,26,24,25,29,30,28,26,12,30,13,28,29,18,30,25,24,24,16,26,26,11,25,24,23,22,22,22,1,27,25,25,28,24,1201.txt
1,1,9,26,24,25,29,30,28,26,22,22,21,23,22,27,30,25,24,24,6,6,6,6,6,24,23,22,22,22,1,27,25,25,28,24,1203.txt
1,14,9,26,24,25,29,30,28,26,12,30,13,28,29,18,30,8,24,24,16,26,26,11,25,15,30,27,25,26,1,27,25,25,28,14,1205.txt
30,0,15,26,28,11,0,0,0,13,13,12,14,14,15,7,27,3,8,8,6,6,6,6,6,24,23,22,22,22,1,27,25,25,28,24,1207.txt
1,0,9,26,24,25,29,30,28,26,12,30,13,28,29,18,30,25,24,24,6,6,6,6,6,2,2,2,2,2,1,27,25,25,28,2,1211.txt
1,1,24,16,15,5,8,25,19,28,23,14,4,17,5,18,22,2,24,24,6,6,6,6,6,4,25,29,4,28,15,26,30,30,21,8,1214.txt
1,14,24,16,15,5,8,25,19,28,23,14,4,17,5,5,11,2,24,24,20,22,21,19,20,22,25,29,4,28,15,19,19,19,21,26,1216.txt
1,1,9,26,24,25,29,30,28,26,12,30,13,28,29,18,30,25,24,24,16,26,26,11,25,15,30,25,25,24,1,27,25,25,28,14,1217.txt
1,1,9,26,24,25,29,30,28,26,12,30,13,28,29,18,30,25,24,24,6,6,6,6,6,15,30,25,25,24,1,27,25,25,28,14,1219.txt
1,0,9,26,24,25,29,30,28,26,12,30,13,28,29,18,30,25,24,24,6,6,6,6,6,15,27,12,26,13,1,1,1,1,1,14,1221.txt
1,0,9,26,24,25,29,30,28,26,12,30,13,28,29,18,30,25,24,24,16,26,26,11,25,15,30,27,25,26,1,27,25,25,28,14,1225.txt
1,0,9,16,0,5,29,30,28,28,23,14,4,17,7,18,30,25,24,24,25,28,29,30,6,15,30,25,25,24,1,27,25,25,28,14,1228.txt
1,0,9,26,24,25,29,30,28,26,12,30,13,28,29,18,30,25,24,24,16,26,26,11,25,24,23,22,22,22,1,27,25,25,28,24,1230.txt
1,24,9,26,24,25,29,30,28,26,12,30,13,28,29,18,30,25,24,24,25,28,29,30,6,15,6,6,6,7,1,27,25,25,28,5,1234.txt
1,1,9,26,24,25,29,30,28,26,12,30,13,28,29,18,30,25,24,24,6,6,6,6,6,15,27,25,26,24,1,27,25,25,28,14,1237.txt
1,1,26,0,15,6,1,1,8,6,15,14,0,7,4,0,20,19,24,24,20,22,21,19,20,15,30,25,25,24,2,2,2,2,2,14,1239.txt
28,0,15,26,24,11,6,9,10,13,13,12,14,14,15,8,30,3,8,8,6,6,6,6,6,24,23,22,22,22,1,27,25,25,28,24,1241.txt
1,0,9,26,24,25,29,30,28,26,12,30,13,28,29,18,30,25,24,24,6,6,6,6,6,2,2,2,2,2,1,27,25,25,28,2,1243.txt
1,0,9,26,24,25,29,30,28,26,12,30,13,28,29,18,30,25,24,24,16,26,26,11,25,15,30,25,25,24,1,27,25,25,28,14,1245.txt
1,0,9,26,24,25,29,30,28,26,12,30,13,28,29,18,30,25,24,24,6,6,6,6,6,15,27,27,26,26,1,27,25,25,28,14,1249.txt
1,0,9,26,24,25,8,25,19,26,12,30,13,28,29,18,20,19,24,24,6,6,6,6,6,15,30,25,25,24,2,2,2,2,2,14,1251.txt
28,24,15,26,24,25,6,9,3,26,12,30,13,28,29,18,30,4,7,7,1,1,1,1,1,15,6,6,6,7,1,27,25,25,28,5,1254.txt
1,14,9,26,24,25,29,30,28,26,12,30,13,28,29,18,30,25,3,3,16,26,26,11,25,15,30,25,25,24,12,5,5,5,3,14,1255.txt
1,0,9,26,24,25,29,30,28,26,12,30,13,28,29,18,30,25,24,24,16,26,26,3,25,15,30,27,25,26,19,21,11,11,23,14,1267.txt
26,0,9,26,24,25,29,30,28,26,12,30,13,28,29,18,30,25,24,24,16,26,26,11,25,15,6,6,6,7,1,27,25,25,28,5,1271.txt
1,14,3,24,9,13,29,30,28,15,20,21,26,18,27,1,9,25,24,24,16,26,26,11,25,15,30,25,25,24,12,21,11,11,23,14,1274.txt
1,12,9,26,24,25,29,30,28,26,12,30,13,28,29,18,30,25,24,24,16,26,26,3,25,12,30,25,25,24,12,21,21,21,20,14,1276.txt
28,0,15,26,24,25,6,9,10,26,12,30,13,28,29,18,30,3,9,9,6,6,6,6,6,15,30,25,25,24,1,27,25,25,28,14,1278.txt
1,1,9,26,24,25,29,30,28,26,12,30,13,28,29,18,30,25,24,24,6,6,6,6,6,15,27,25,26,24,1,27,25,25,28,14,1280.txt
1,0,9,26,24,25,29,30,28,26,12,30,13,28,29,18,30,25,24,24,16,26,26,11,25,15,6,6,6,7,1,27,25,25,28,5,1283.txt
1,14,9,26,24,25,29,30,28,26,12,30,13,28,29,18,30,25,24,24,16,26,26,11,25,15,30,25,25,24,1,27,25,25,28,14,1285.txt
1,0,9,26,24,25,29,30,28,26,12,30,13,28,29,18,30,25,24,24,16,16,16,11,16,15,27,25,26,24,1,27,25,25,28,14,1287.txt
28,14,15,26,24,25,6,9,10,26,12,30,13,28,29,18,30,3,9,9,25,28,29,30,6,15,30,27,25,26,1,27,25,25,28,14,1288.txt
28,0,16,26,24,11,6,9,3,26,3,19,16,20,18,18,30,13,9,9,8,9,9,8,9,15,30,25,25,24,1,27,25,25,28,14,1290.txt
28,0,9,26,24,25,6,9,10,26,12,30,13,28,29,18,30,13,9,9,28,25,25,26,29,9,10,10,10,11,1,27,25,25,28,10,1292.txt
1,0,9,26,24,25,29,30,28,26,12,30,13,28,29,18,30,25,24,24,6,6,6,6,6,15,30,27,25,26,1,27,25,25,28,14,1295.txt
25,1,9,26,24,25,29,30,28,26,12,30,13,28,29,18,30,25,24,24,16,16,16,3,26,15,6,6,6,9,1,27,25,25,28,5,1297.txt
1,0,9,26,24,25,29,30,28,26,12,30,13,28,29,18,30,25,24,24,16,26,26,11,25,24,23,22,22,22,1,27,25,25,28,24,1300.txt
28,0,15,26,24,25,6,9,10,26,12,30,13,28,29,18,30,4,0,0,29,13,14,28,14,15,6,6,6,9,19,5,5,5,5,5,1302.txt
1,1,9,26,24,25,29,30,28,26,12,30,13,28,29,18,30,25,24,24,6,6,6,6,6,15,30,27,25,26,1,27,25,25,28,14,1303.txt
1,0,9,26,24,25,29,22,27,26,12,11,13,13,14,18,16,17,24,24,16,16,16,3,16,15,27,12,26,13,1,1,1,1,1,14,1305.txt
1,1,9,26,24,25,29,30,28,26,12,30,13,28,29,18,30,25,24,24,6,6,6,6,6,12,30,25,25,24,1,27,25,25,28,14,1307.txt
1,0,9,26,24,25,29,30,28,26,12,30,13,28,29,18,30,25,24,24,16,26,26,11,25,15,30,27,25,26,12,5,5,5,26,14,1309.txt
1,0,9,26,24,25,29,30,28,26,12,30,13,28,29,18,30,25,24,24,6,6,6,6,6,24,23,22,22,22,1,27,25,25,28,24,1311.txt
1,1,9,26,24,25,29,30,28,26,12,30,13,28,29,18,30,25,24,24,6,6,6,6,6,15,30,25,25,24,3,3,3,3,4,14,1314.txt
1,1,9,26,24,25,29,30,28,26,12,30,13,28,29,18,30,25,24,24,16,26,26,11,25,15,30,25,25,24,1,27,25,25,28,14,1315.txt
1,1,9,26,24,25,29,30,28,26,28,26,25,26,25,25,25,27,24,24,6,6,6,6,6,21,30,25,25,24,1,27,25,25,28,14,1317.txt
1,1,9,26,24,25,29,30,28,26,12,30,13,28,29,18,30,25,24,24,6,6,6,6,6,15,30,25,25,24,1,27,25,25,28,14,1318.txt
1,0,9,26,24,25,29,30,28,26,12,30,13,28,29,18,30,3,24,24,6,6,6,6,6,15,6,6,6,7,1,27,25,25,28,5,1320.txt
1,0,9,26,24,25,29,30,28,26,12,30,13,28,29,18,30,25,24,24,6,6,6,6,6,15,6,6,6,7,1,27,25,25,28,5,1323.txt
1,0,9,26,24,25,29,30,28,26,12,30,13,28,29,18,30,25,24,24,6,6,6,6,6,15,30,25,25,24,1,27,25,25,28,14,1325.txt
1,0,9,26,24,25,29,30,28,26,12,30,13,28,29,18,30,25,24,24,6,6,6,6,6,15,30,25,25,24,1,27,25,25,28,14,1327.txt
1,0,9,26,24,25,29,30,28,26,12,30,13,28,29,18,30,25,24,24,16,26,26,11,25,24,23,22,22,22,11,5,5,5,26,24,1329.txt
1,0,9,26,24,25,29,30,28,26,12,30,13,28,29,18,30,25,24,24,6,6,6,6,6,6,10,10,10,11,1,27,25,25,28,10,1331.txt
1,1,9,26,24,25,29,30,28,26,12,30,13,28,29,18,30,3,24,24,6,6,6,6,6,15,30,25,25,24,1,27,25,25,28,14,1332.txt
1,1,9,26,24,25,29,30,28,26,12,30,13,28,29,18,30,25,24,24,6,6,6,6,6,15,30,25,25,24,1,27,25,25,28,14,1335.txt
1,14,9,26,24,25,29,30,28,26,12,30,13,28,29,18,30,25,24,24,16,26,26,11,25,15,30,25,25,24,12,5,5,5,5,14,1337.txt
1,0,9,26,24,30,29,30,28,26,12,30,13,28,29,18,30,25,24,24,6,6,6,6,6,24,23,22,22,22,1,27,25,25,28,24,1339.txt
1,1,9,26,24,25,8,25,19,26,12,30,13,28,29,18,20,19,24,24,20,22,21,19,20,15,27,25,26,24,1,27,25,25,28,14,1341.txt
1,0,9,26,24,25,29,30,28,26,12,30,13,28,29,18,30,25,24,24,6,6,6,6,6,15,30,25,25,24,1,27,25,25,28,14,1344.txt
1,1,9,26,24,25,29,30,28,26,12,30,13,28,29,18,30,25,24,24,6,6,6,6,6,15,30,12,25,13,1,27,25,25,28,14,1346.txt
1,1,9,26,24,25,29,30,28,26,12,30,13,28,29,18,30,25,24,24,6,6,6,6,6,15,27,25,26,24,1,1,1,1,1,14,1348.txt
12,1,9,29,24,25,29,30,28,19,22,8,21,23,22,27,12,25,24,24,16,26,26,11,25,2,2,2,2,2,1,27,25,25,28,2,1351.txt
1,0,9,26,24,25,29,30,28,26,12,30,13,28,29,18,30,25,24,24,6,6,6,6,6,15,27,25,26,24,1,27,25,25,28,14,1352.txt
28,0,15,26,24,25,0,0,0,26,12,30,13,28,29,18,30,3,0,0,6,6,6,6,6,15,6,6,6,7,1,27,25,25,28,5,1354.txt
1,24,9,26,24,25,29,30,28,26,12,30,13,28,29,18,30,25,24,24,16,26,26,11,25,15,30,25,25,24,1,27,25,25,28,14,1356.txt
1,0,9,26,24,25,29,30,28,26,12,30,13,28,29,18,30,25,24,24,6,6,6,6,6,15,27,25,26,24,1,1,1,1,1,14,1358.txt
1,0,15,26,24,25,0,0,0,26,12,30,13,28,29,18,30,3,24,24,6,6,6,6,6,24,23,22,22,22,1,27,25,25,28,24,1360.txt
1,1,9,26,24,25,29,30,28,26,12,30,13,28,29,18,30,25,3,3,16,26,26,11,25,24,23,22,22,22,1,27,25,25,28,24,1362.txt
1,0,9,26,24,25,29,30,28,26,12,30,13,28,29,18,30,25,24,24,6,6,6,6,6,15,30,25,25,24,1,27,25,25,28,14,1364.txt
1,0,9,26,24,25,29,30,28,26,12,30,13,28,29,18,30,25,24,24,6,6,6,6,6,24,23,22,22,22,1,27,25,25,28,24,1367.txt
1,14,9,26,24,25,29,30,28,26,12,30,13,28,29,18,30,25,3,3,16,26,26,11,25,24,23,22,22,22,12,5,5,5,23,24,1368.txt
1,13,9,26,24,25,29,30,28,26,12,30,13,28,29,18,30,25,24,24,16,26,26,11,25,24,23,22,22,22,1,27,25,25,28,24,1371.txt
1,0,9,26,24,25,29,30,28,26,12,30,13,28,29,18,30,25,24,24,6,6,6,6,6,15,30,25,25,24,1,27,25,25,28,14,1372.txt
1,0,9,26,24,25,29,30,28,26,12,30,13,28,29,18,30,25,24,24,16,26,26,11,25,15,30,25,25,24,1,27,25,25,28,14,1375.txt
1,0,9,26,24,25,29,30,28,26,12,30,13,28,29,18,30,25,24,24,16,27,27,11,26,15,30,25,25,24,1,27,25,25,28,14,1377.txt
1,0,9,26,24,25,29,30,28,26,12,30,13,28,29,18,30,25,24,24,6,6,6,6,6,15,30,25,25,24,1,27,25,25,28,14,1379.txt
1,0,9,26,24,25,29,30,28,26,12,30,13,28,29,18,30,25,16,15,16,26,26,11,25,15,30,25,25,24,12,5,5,5,3,14,1380.txt
1,0,9,26,24,25,29,30,28,26,12,30,13,28,29,18,30,25,24,24,16,26,26,11,25,15,30,25,25,24,1,1,1,1,1,14,1383.txt
1,0,9,26,24,25,29,30,28,26,12,30,13,28,29,18,30,25,3,3,16,26,26,11,25,15,30,27,25,26,1,27,25,25,28,14,1389.txt
1,0,9,26,24,25,29,30,28,26,12,30,13,28,29,18,30,25,24,24,16,26,26,11,25,24,23,22,22,22,1,27,25,25,28,24,1390.txt
1,0,9,26,24,25,29,30,28,26,28,26,25,26,25,25,25,27,24,24,6,6,6,6,6,21,30,25,25,24,1,27,25,25,28,14,1392.txt
1,0,9,26,24,25,29,30,28,26,12,30,13,28,29,18,30,25,24,24,6,6,6,6,6,15,30,25,25,24,1,27,25,25,28,14,1395.txt
1,0,9,26,24,25,29,30,28,26,12,30,13,28,29,18,30,25,24,24,16,26,26,11,25,15,12,25,12,24,1,27,25,25,28,14,1396.txt
1,1,9,26,24,25,29,30,28,26,12,30,13,28,29,18,30,25,24,24,6,6,6,6,6,24,23,22,22,22,1,27,25,25,28,24,1398.txt
1,1,9,26,24,25,29,30,28,26,12,30,13,28,29,18,30,25,24,24,6,6,6,6,6,15,30,27,25,26,1,27,25,25,28,14,1400.txt
1,1,9,26,24,25,29,30,28,26,12,30,13,28,29,18,30,25,24,24,6,6,6,6,6,15,30,25,25,24,1,27,25,25,28,14,1402.txt
1,0,9,26,24,25,29,30,28,26,12,30,13,28,29,18,30,25,24,24,16,26,26,11,25,15,30,25,25,24,1,27,25,25,28,14,1405.txt
1,1,9,26,24,25,29,30,28,26,12,30,13,28,29,18,30,25,24,24,6,6,6,6,6,15,30,27,25,26,1,27,25,25,28,14,1407.txt
1,1,9,26,24,25,29,30,28,26,28,26,25,26,25,25,25,27,24,24,6,6,6,6,6,21,30,27,25,26,1,27,25,25,28,14,1409.txt
28,8,15,26,24,11,6,9,10,13,3,19,16,20,18,17,30,13,9,9,28,25,25,26,29,24,23,22,22,22,19,21,11,11,26,24,1412.txt
1,0,9,26,24,25,29,30,28,26,12,30,13,28,29,18,30,25,24,24,6,6,6,6,6,15,30,25,25,24,1,27,25,25,28,14,1416.txt
1,0,9,26,24,25,29,30,28,26,12,30,13,28,29,18,30,25,24,24,16,26,26,11,25,15,30,25,25,24,1,27,25,25,28,14,1418.txt
1,1,9,26,24,25,29,30,28,26,12,30,13,28,29,18,30,25,24,24,6,6,6,6,6,15,30,27,25,26,1,27,25,25,28,14,1421.txt
1,0,9,26,24,25,29,30,28,26,12,30,13,28,29,18,30,25,24,24,6,6,6,6,6,15,30,25,25,24,1,27,25,25,28,14,1422.txt
1,1,9,26,24,25,29,30,28,26,12,30,13,28,29,18,30,25,24,24,6,6,6,6,6,13,27,25,26,24,2,2,2,2,2,14,1425.txt
1,1,9,26,24,20,26,28,6,2,12,30,13,28,29,2,15,1,24,24,6,6,6,6,6,0,0,0,0,0,1,1,1,1,1,12,1427.txt
1,0,9,26,24,25,29,30,28,26,12,30,13,28,29,18,30,25,24,24,6,6,6,6,6,15,27,27,26,26,1,27,25,25,28,14,1429.txt
1,1,9,19,19,5,29,30,28,28,5,14,0,8,5,0,30,25,24,24,16,26,26,11,25,24,23,22,22,22,12,5,5,5,20,24,1431.txt
1,0,9,26,24,25,29,30,28,26,12,30,13,28,29,18,30,25,24,24,16,26,26,11,25,15,30,25,25,24,1,27,25,25,28,14,1433.txt
1,14,9,26,24,25,29,30,28,26,12,30,13,28,29,18,30,25,24,24,16,26,26,11,25,24,23,22,22,22,1,27,25,25,28,24,1434.txt
1,14,9,26,24,25,29,30,28,26,12,30,13,28,29,18,30,25,24,24,16,26,26,11,25,24,23,22,22,22,1,27,25,25,28,24,1436.txt
28,0,15,26,24,25,0,0,0,13,12,30,13,28,29,8,30,4,9,9,22,13,14,21,14,24,23,22,22,22,19,5,5,5,23,24,1439.txt
1,1,9,26,24,25,29,30,28,26,12,30,13,28,29,18,30,25,24,24,6,6,6,6,6,12,11,11,11,7,1,27,25,25,28,11,1441.txt
1,1,9,26,24,25,29,30,28,26,12,30,13,28,29,18,30,25,24,24,16,26,26,11,25,15,30,25,25,24,1,27,25,25,28,14,1442.txt
1,12,9,26,24,25,29,30,28,26,12,30,13,28,29,18,30,25,3,3,16,26,26,11,25,15,30,25,25,24,12,11,11,11,23,14,1444.txt
1,0,9,26,24,25,29,30,28,26,12,30,13,28,29,18,30,25,24,24,6,6,6,6,6,15,30,27,25,26,1,27,25,25,28,14,1446.txt
1,0,9,26,24,25,29,30,28,26,28,26,25,26,25,25,25,27,24,24,19,20,24,18,24,21,30,25,25,24,1,27,25,25,28,14,1448.txt
1,1,24,26,24,25,29,30,28,26,12,30,13,28,29,18,30,25,28,28,6,6,6,6,6,15,27,25,26,24,2,2,2,2,2,14,1451.txt
1,0,9,26,24,25,29,30,28,26,12,30,13,28,29,18,30,25,24,24,6,6,6,6,6,15,30,25,25,24,1,27,25,25,28,14,1453.txt
1,0,9,26,24,25,29,30,28,26,12,30,13,28,29,18,30,13,24,24,16,26,26,11,25,15,30,25,25,24,1,27,25,25,28,14,1454.txt
1,0,9,26,24,25,29,30,28,26,12,30,13,28,29,18,30,25,3,3,16,26,26,11,25,15,30,12,25,13,12,5,5,5,5,14,1456.txt
1,0,9,26,24,25,29,30,28,26,12,30,13,28,29,18,30,25,24,24,6,6,6,6,6,2,2,2,2,2,1,27,25,25,28,2,1458.txt
1,14,9,26,24,25,29,30,28,26,12,30,13,28,29,18,30,25,24,24,16,26,26,11,25,24,23,22,22,22,1,27,25,25,28,24,1460.txt
1,1,9,26,24,25,29,30,28,26,28,26,25,26,25,25,25,27,24,24,6,6,6,6,6,21,27,12,26,13,1,27,25,25,28,14,1462.txt
1,1,24,26,24,25,29,30,28,26,12,30,13,28,29,18,30,25,24,24,6,6,6,6,6,15,30,25,25,24,2,2,2,2,2,14,1465.txt
1,1,9,26,24,25,29,30,28,26,12,8,13,28,29,18,30,25,24,24,6,6,6,6,6,15,30,27,25,26,1,27,25,25,28,14,1467.txt
1,1,9,26,24,25,29,30,28,26,12,30,13,28,29,18,30,25,24,24,6,6,6,6,6,24,23,22,22,22,1,27,25,25,28,24,1469.txt
28,5,15,26,24,11,6,9,10,26,3,19,16,20,18,18,30,13,9,9,8,9,9,8,9,24,23,22,22,22,1,27,25,25,28,24,1470.txt
1,0,9,26,24,25,29,30,28,26,12,30,13,28,29,18,30,25,3,3,16,16,16,11,16,15,30,27,25,26,12,5,5,5,3,14,1473.txt
1,0,9,26,24,25,29,30,28,26,12,30,13,28,29,18,30,25,24,24,6,6,6,6,6,15,30,25,25,24,1,27,25,25,28,14,1475.txt
1,24,9,26,24,25,29,30,28,26,12,30,13,28,29,18,30,25,24,24,6,6,6,6,6,15,29,27,28,26,1,27,25,25,28,14,1477.txt
1,0,9,26,24,25,29,30,28,26,28,26,25,26,25,25,25,27,24,24,19,20,24,18,24,21,30,25,25,24,1,27,25,25,28,14,1480.txt
26,1,9,26,24,25,29,30,28,26,12,30,13,28,29,18,30,25,24,24,6,6,6,6,6,15,7,7,7,9,1,1,1,1,1,6,1482.txt
1,0,9,26,24,25,29,30,28,26,12,30,13,28,29,18,30,25,24,24,16,26,26,11,25,15,30,27,25,26,1,27,25,25,28,14,1484.txt
1,14,9,26,24,25,29,30,28,26,12,30,13,28,29,18,14,25,24,24,16,26,26,11,25,15,30,25,25,24,12,5,5,5,3,14,1487.txt
1,0,9,26,24,25,29,30,28,26,12,30,13,28,29,18,30,25,24,24,6,6,6,6,6,15,30,25,25,24,1,27,25,25,28,14,1490.txt
1,1,9,26,24,25,29,30,28,26,12,30,13,28,29,18,30,25,28,28,6,6,6,6,6,15,30,25,25,24,1,27,25,25,28,14,1491.txt
1,0,3,24,9,13,29,30,28,15,8,7,11,10,1,14,8,25,24,24,16,19,18,11,18,15,30,25,25,24,20,20,20,20,20,14,1494.txt
28,30,15,26,24,11,6,9,10,26,3,19,16,20,18,18,30,3,9,9,6,6,6,6,6,5,5,5,5,4,1,27,25,25,28,4,1497.txt
1,0,9,26,24,25,29,30,28,26,12,30,13,28,29,18,30,25,24,24,6,6,6,6,6,15,30,25,25,24,1,27,25,25,28,14,1499.txt
1,0,9,26,24,25,29,30,28,26,12,30,13,28,29,18,30,25,24,24,6,6,6,6,6,15,30,25,25,24,1,27,25,25,28,14,1502.txt
1,14,9,26,24,25,29,30,28,26,12,30,13,28,29,18,30,25,24,24,16,26,26,11,25,24,23,22,22,22,23,5,5,5,5,24,1504.txt
1,14,9,26,24,25,29,30,28,26,12,30,13,28,29,18,30,25,24,24,16,26,26,11,25,15,30,27,25,26,1,27,25,25,28,14,1505.txt
1,1,15,26,24,25,0,0,0,26,12,30,13,28,29,18,30,3,9,9,6,6,6,6,6,15,29,25,28,24,1,27,25,25,28,14,1507.txt
26,0,9,26,24,25,29,30,28,26,12,30,13,28,29,18,30,25,24,24,6,6,6,6,6,15,6,6,6,7,1,27,25,25,28,5,1509.txt
1,0,9,26,24,25,29,30,28,26,12,30,13,28,29,18,30,25,24,24,6,6,6,6,6,15,30,25,25,24,1,27,25,25,28,14,1511.txt
1,0,9,26,24,25,29,30,28,26,12,30,13,28,29,18,30,25,24,24,16,26,26,11,25,15,30,27,25,26,12,5,5,5,23,14,1513.txt
1,1,9,26,24,25,29,30,28,26,12,30,13,28,29,18,30,25,24,24,16,26,26,11,25,15,30,25,25,24,1,27,25,25,28,14,1515.txt
1,0,9,26,24,25,29,30,28,26,12,30,13,28,29,18,30,25,24,24,6,6,6,6,6,24,23,22,22,22,1,27,25,25,28,24,1518.txt
1,14,9,26,24,25,29,30,28,26,12,30,13,28,29,18,30,13,24,24,16,26,26,11,25,15,30,27,25,26,1,27,25,25,28,14,1519.txt
1,1,9,26,24,25,29,30,28,26,12,30,13,28,29,18,30,25,24,24,16,26,26,11,25,15,6,6,6,9,1,27,25,25,28,5,1521.txt
1,0,9,26,24,25,29,30,28,26,28,26,25,26,25,25,25,27,24,24,6,6,6,6,6,21,30,25,25,24,1,27,25,25,28,14,1523.txt
1,0,9,26,24,25,29,30,28,26,12,30,13,28,29,18,30,25,24,24,6,6,6,6,6,15,30,25,25,24,1,27,25,25,28,14,1526.txt
1,0,9,26,24,25,29,30,28,26,12,30,13,28,29,18,30,25,24,24,6,6,6,6,6,2,2,2,2,2,1,27,25,25,28,2,1528.txt
1,1,9,26,24,25,29,30,28,26,12,30,13,28,29,18,30,25,24,24,16,26,26,11,25,24,23,22,22,22,1,27,25,25,28,24,1529.txt
1,0,9,26,24,25,29,30,28,26,12,30,13,28,29,18,30,25,3,3,16,26,26,11,25,15,30,27,25,26,11,5,5,5,3,14,1532.txt
1,0,9,26,24,25,29,30,28,26,12,30,13,28,29,18,30,25,24,24,16,26,26,11,25,15,30,25,25,24,1,27,25,25,28,14,1534.txt
1,24,3,24,6,13,29,30,28,17,24,16,15,24,10,14,9,25,24,24,16,26,26,11,25,15,30,25,25,24,1,27,25,25,28,14,1536.txt
1,0,9,26,24,25,29,30,28,26,12,30,13,28,29,18,30,25,24,24,16,26,26,11,25,15,30,25,25,24,1,27,25,25,28,14,1538.txt
1,0,9,26,24,25,29,30,28,26,12,30,13,28,29,18,30,25,24,24,6,6,6,6,6,15,30,25,25,24,1,27,25,25,28,14,1540.txt
1,1,9,26,24,25,29,22,27,26,12,11,13,29,30,18,16,26,24,24,6,6,6,6,6,15,26,25,25,24,1,27,25,25,28,14,1543.txt
1,24,9,26,24,25,29,30,28,26,12,30,13,28,29,18,30,25,24,24,25,28,29,30,6,15,30,28,25,27,1,27,25,25,28,14,1545.txt
1,0,3,24,9,13,29,30,28,17,20,21,18,18,10,11,19,25,11,11,16,26,26,11,25,15,30,25,25,24,1,27,25,25,28,14,1546.txt
1,1,9,26,24,25,29,30,28,26,12,30,13,28,29,18,30,25,24,24,16,26,26,3,25,15,30,25,25,24,1,27,25,25,28,14,1548.txt
1,1,9,26,24,25,29,30,28,26,12,30,13,28,29,18,30,25,24,24,6,6,6,6,6,15,30,25,25,24,1,27,25,25,28,14,1551.txt
1,0,9,26,24,25,29,30,28,26,12,30,13,28,29,18,30,25,24,24,6,6,6,6,6,15,27,25,26,24,1,27,25,25,28,14,1552.txt
1,0,9,26,24,25,29,30,28,26,12,30,13,28,29,18,30,25,24,24,6,6,6,6,6,15,27,25,26,24,1,27,25,25,28,14,1556.txt
1,0,9,26,24,25,29,30,28,26,12,30,13,28,29,18,30,25,24,24,6,6,6,6,6,15,30,27,25,26,1,1,1,1,1,14,1558.txt
1,12,9,26,24,25,29,30,28,26,12,30,13,28,29,18,30,25,24,24,16,26,26,3,25,15,30,25,25,24,12,5,5,5,20,14,1561.txt
1,1,9,26,24,25,29,30,28,26,12,30,13,28,29,18,30,25,28,28,6,6,6,6,6,15,27,25,26,24,1,27,25,25,28,14,1563.txt
1,0,9,26,24,25,0,0,0,26,12,30,13,28,29,18,30,3,24,24,6,6,6,6,6,15,12,25,12,24,1,27,25,25,28,14,1565.txt
1,1,9,26,24,25,29,30,28,26,12,30,13,28,29,18,30,25,24,24,6,6,6,6,6,15,30,25,25,24,1,27,25,25,28,14,1567.txt
1,1,9,26,24,25,29,30,28,26,12,30,13,28,29,18,30,25,3,3,16,26,26,11,25,15,27,27,26,26,2,2,2,2,2,14,1570.txt
1,12,9,26,24,25,29,30,28,26,12,30,13,28,29,18,30,25,24,24,16,16,16,3,16,15,27,12,26,13,1,27,25,25,28,14,1572.txt
1,14,9,26,24,25,4,4,5,26,12,30,13,28,29,18,30,10,24,24,1,1,1,1,1,15,30,27,25,26,1,27,25,25,28,14,1574.txt
1,0,9,26,24,25,29,30,28,26,12,30,13,28,29,18,30,25,24,24,6,6,6,6,6,15,30,27,25,26,1,27,25,25,28,14,1581.txt
1,1,9,26,24,25,29,30,28,26,12,30,13,28,29,18,30,25,24,24,6,6,6,6,6,15,30,27,25,26,1,27,25,25,28,14,1583.txt
1,0,9,26,24,25,29,30,28,26,12,30,13,28,29,18,30,25,16,15,16,26,26,11,25,15,30,25,25,24,4,4,28,28,26,14,1585.txt
1,1,9,26,24,25,29,30,28,26,12,30,13,28,29,18,30,25,24,24,16,26,26,11,25,15,30,12,25,13,1,1,1,1,1,14,1587.txt
1,1,9,26,24,25,29,30,28,26,12,30,13,28,29,18,30,25,24,24,16,26,26,11,25,15,27,25,26,24,1,27,25,25,28,14,1589.txt
1,0,15,26,24,25,0,0,0,26,12,30,13,28,29,18,30,3,9,9,6,6,6,6,6,24,23,22,22,22,1,27,25,25,28,24,1590.txt
1,0,9,26,24,25,29,30,28,26,12,30,13,28,29,18,30,25,24,24,16,16,16,3,16,15,30,25,25,24,1,27,25,25,28,14,1594.txt
1,0,9,26,24,25,29,30,28,26,12,30,13,28,29,18,30,3,24,24,6,6,6,6,6,15,30,25,25,24,1,27,25,25,28,14,1596.txt
1,1,9,26,24,25,29,30,28,26,28,26,25,26,25,25,25,27,24,24,6,6,6,6,6,21,30,25,25,24,1,27,25,25,28,14,1598.txt
1,0,9,26,24,25,29,30,28,26,12,30,13,28,29,18,30,25,24,24,6,6,6,6,6,15,30,27,25,26,1,27,25,25,28,14,1600.txt
1,14,9,26,24,25,29,30,28,26,12,30,13,28,29,18,30,25,24,24,16,26,26,3,25,15,30,12,25,13,12,5,5,5,23,14,1602.txt
1,12,9,26,24,25,29,30,28,26,12,30,13,28,29,18,30,25,24,24,25,28,29,30,6,15,27,25,26,24,1,27,25,25,28,14,1604.txt
1,14,9,26,24,25,29,30,28,26,12,30,13,28,29,18,30,25,24,24,16,26,26,11,25,15,30,25,25,24,12,5,5,5,26,14,1605.txt
1,14,9,26,24,25,29,30,28,26,12,30,13,28,29,18,30,25,24,24,16,26,26,11,25,15,30,25,25,24,1,27,25,25,28,14,1608.txt
1,0,9,26,24,25,29,30,28,26,12,30,13,28,29,18,30,25,24,24,16,26,26,11,25,15,30,25,25,24,1,27,25,25,28,14,1610.txt
1,0,9,26,24,25,29,30,28,26,12,30,13,28,29,18,30,25,24,24,16,26,26,11,25,15,30,25,25,24,1,27,25,25,28,14,1612.txt
1,0,9,26,24,25,29,30,28,26,12,30,13,28,29,18,30,25,24,24,6,6,6,6,6,15,30,25,25,24,1,1,1,1,1,14,1615.txt
1,0,9,26,24,25,29,30,28,26,12,30,13,28,29,18,30,25,24,24,16,26,26,11,25,15,30,25,25,24,1,27,25,25,28,14,1616.txt
1,0,9,26,24,25,29,30,28,26,28,26,25,26,25,25,25,27,24,24,6,6,6,6,6,21,30,25,25,24,1,27,25,25,28,14,1618.txt
1,0,9,26,24,25,29,30,28,26,12,30,13,28,29,18,30,25,24,24,16,26,26,11,25,24,23,22,22,22,1,27,25,25,28,24,1622.txt
1,12,9,26,24,25,29,30,28,26,12,30,13,28,29,18,30,25,24,24,16,26,26,3,25,15,12,25,12,24,1,27,25,25,28,14,1623.txt
1,0,9,26,24,25,29,30,28,26,12,30,13,28,29,18,30,25,24,24,6,6,6,6,6,15,27,25,26,24,1,27,25,25,28,14,1626.txt
1,12,9,26,24,25,29,22,27,26,12,11,13,13,14,18,16,17,24,24,16,16,16,3,16,15,12,25,12,24,11,5,5,5,3,14,1629.txt
1,0,9,26,24,25,29,30,28,26,12,30,13,28,29,18,30,25,28,28,16,26,26,11,25,15,27,25,26,24,1,27,25,25,28,14,1631.txt
1,0,9,26,24,25,29,30,28,26,12,30,13,28,29,18,30,25,24,24,16,26,26,11,25,15,30,25,25,24,1,27,25,25,28,14,1632.txt
1,14,9,26,24,25,29,30,28,26,12,30,13,28,29,18,30,25,24,24,16,26,26,11,25,15,30,25,25,24,12,11,21,21,26,14,1637.txt
1,0,9,26,24,25,29,30,28,26,12,30,13,28,29,18,30,25,24,24,16,26,26,11,25,15,30,27,25,26,1,27,25,25,28,14,1639.txt
1,1,9,26,24,25,29,30,28,26,12,30,13,28,29,18,30,25,24,24,6,6,6,6,6,8,6,6,6,7,1,27,25,25,28,5,1641.txt
1,0,9,26,24,25,29,30,28,26,12,30,13,28,29,18,30,25,3,3,16,26,26,11,25,15,27,25,26,24,1,27,25,25,28,14,1643.txt
1,12,9,26,24,25,29,30,28,26,12,30,13,28,29,18,30,25,24,24,16,26,26,11,25,15,30,25,25,24,12,5,5,5,20,14,1645.txt
1,1,9,26,24,25,29,30,28,26,12,30,13,28,29,18,30,25,3,3,16,26,26,11,25,15,30,25,25,24,1,27,25,25,28,14,1647.txt
1,14,9,26,24,25,29,30,28,26,12,30,13,28,29,18,30,10,24,24,16,26,26,11,25,15,30,25,25,24,1,27,25,25,28,14,1650.txt
1,0,9,26,24,25,29,30,28,26,12,30,13,28,29,18,30,25,24,24,6,6,6,6,6,15,30,25,25,24,1,27,25,25,28,14,1652.txt
1,0,9,26,24,20,26,28,6,2,12,30,13,28,29,2,15,1,24,24,6,6,6,6,6,0,0,0,0,0,2,2,2,2,2,12,1654.txt
1,0,9,26,24,25,29,30,28,26,12,30,13,28,29,18,30,25,24,24,16,16,16,11,26,15,27,25,26,24,1,27,25,25,28,14,1655.txt
1,1,9,26,24,25,29,30,28,26,12,30,13,28,29,18,30,25,24,24,16,26,26,11,25,15,30,27,25,26,1,27,25,25,28,14,1657.txt
1,0,9,26,24,25,29,30,28,26,12,30,13,28,29,18,30,25,24,24,6,6,6,6,6,15,30,25,25,24,1,27,25,25,28,14,1660.txt
1,0,9,26,24,25,29,30,28,26,12,30,13,28,29,18,30,25,24,24,16,26,26,11,25,24,23,22,22,22,1,27,25,25,28,24,1662.txt
1,0,9,26,24,25,29,30,28,26,12,30,13,28,29,18,30,25,24,24,16,26,26,11,25,15,27,25,26,24,1,27,25,25,28,14,1663.txt
1,0,9,26,24,25,29,30,28,26,12,30,13,28,29,18,30,25,24,24,16,26,26,11,25,15,30,25,25,24,1,27,25,25,28,14,1666.txt
1,0,9,26,24,25,29,30,28,26,12,30,13,28,29,18,30,25,24,24,6,6,6,6,6,15,30,27,25,26,1,27,25,25,28,14,1667.txt
1,1,9,26,24,25,29,30,28,26,12,30,13,28,29,18,30,25,24,24,6,6,6,6,6,15,27,25,26,24,1,27,25,25,28,14,1669.txt
1,0,9,26,24,25,29,30,28,26,12,30,13,28,29,18,30,25,24,24,6,6,6,6,6,15,30,25,25,24,1,27,25,25,28,14,1671.txt
1,0,9,26,24,25,29,30,28,26,12,30,13,28,29,18,30,25,24,24,16,26,26,11,25,15,30,25,25,24,1,27,25,25,28,14,1673.txt
1,0,9,26,24,25,29,30,28,26,12,30,13,28,29,18,30,25,24,24,16,26,26,11,25,15,30,25,25,24,1,27,25,25,28,14,1676.txt
1,0,9,26,24,25,29,30,28,26,12,30,13,28,29,18,30,25,24,24,6,6,6,6,6,15,30,25,25,24,1,27,25,25,28,23,1677.txt
1,0,9,26,24,25,29,30,28,26,12,30,13,28,29,18,30,25,24,24,16,26,26,11,25,15,30,27,25,26,12,5,5,5,3,14,1680.txt
26,14,9,26,24,25,29,30,28,26,12,30,13,28,29,18,30,25,24,24,16,26,26,11,25,15,6,6,6,7,12,5,5,5,23,5,1682.txt
1,1,9,26,24,25,29,30,28,26,12,30,13,28,29,18,30,25,24,24,16,26,26,11,25,15,27,25,26,24,1,27,25,25,28,14,1684.txt
1,1,9,26,24,25,29,30,28,26,12,30,13,28,29,18,30,25,28,28,6,6,6,6,6,15,30,25,25,24,1,27,25,25,28,14,1686.txt
1,14,9,26,24,25,29,30,28,26,12,30,13,28,29,18,30,25,24,24,6,6,6,6,6,15,30,25,25,24,1,27,25,25,28,14,1692.txt
1,0,9,26,24,25,29,22,27,26,12,11,13,13,14,18,16,17,24,24,6,6,6,6,6,15,27,25,26,24,1,27,25,25,28,14,1694.txt
1,1,9,26,24,25,29,30,28,26,12,30,13,28,29,18,30,25,24,24,6,6,6,6,6,15,30,12,25,13,1,27,25,25,28,14,1696.txt
1,0,9,26,24,25,29,30,28,26,12,30,13,28,29,18,30,25,24,24,6,6,6,6,6,15,27,25,26,24,1,27,25,25,28,14,1698.txt
1,1,9,26,24,25,29,30,28,26,12,30,13,28,29,18,30,25,24,24,6,6,6,6,6,15,27,25,26,24,1,1,1,1,1,14,1699.txt
1,1,9,26,24,25,29,22,27,26,12,11,13,13,14,18,16,17,24,24,6,6,6,6,6,15,27,25,26,24,1,27,25,25,28,14,1701.txt
1,1,9,26,24,25,29,30,28,26,12,30,13,28,29,18,30,25,24,24,6,6,6,6,6,15,30,25,25,24,1,27,25,25,28,14,1705.txt
1,1,9,26,24,25,29,30,28,26,12,30,13,28,29,18,30,25,24,24,6,6,6,6,6,15,27,27,26,26,1,27,25,25,28,14,1707.txt
1,1,24,16,15,5,8,25,19,28,23,14,7,17,0,5,5,5,24,24,6,6,6,6,6,15,30,27,25,26,15,19,19,19,21,14,1709.txt
1,14,9,26,24,25,29,30,28,26,12,30,13,28,29,18,30,25,24,24,6,6,6,6,6,15,30,25,25,24,2,2,2,2,2,14,1715.txt
1,0,9,26,24,25,29,30,28,26,12,30,13,28,29,18,30,25,24,24,16,26,26,11,25,15,30,25,25,24,12,5,5,5,3,14,1717.txt
1,1,8,26,24,25,8,25,19,26,12,30,13,28,29,18,5,5,28,28,14,15,15,7,15,12,11,11,11,7,3,3,3,3,4,11,1720.txt
1,1,24,16,17,5,8,25,19,28,23,14,4,17,0,5,20,19,24,24,6,6,6,6,6,15,30,25,25,24,3,3,3,3,4,14,1723.txt
1,0,9,26,24,25,29,30,28,26,12,30,13,28,29,18,30,25,24,24,6,6,6,6,6,15,30,27,25,26,1,27,25,25,28,14,1725.txt
1,0,9,26,24,25,29,30,28,26,12,30,13,28,29,18,30,25,24,24,6,6,6,6,6,15,27,25,26,24,1,27,25,25,28,14,1727.txt
1,12,9,26,24,25,29,30,28,26,12,30,13,28,29,18,30,25,24,24,16,26,26,11,25,15,30,27,25,26,12,5,5,5,23,14,1728.txt
1,0,9,26,24,25,29,30,28,26,12,30,13,28,29,18,30,25,24,24,6,6,6,6,6,15,30,27,25,26,1,27,25,25,28,14,1732.txt
1,0,9,26,24,25,29,30,28,26,12,30,13,28,29,18,30,25,24,24,16,26,26,11,25,15,30,27,25,26,1,27,25,25,28,14,1734.txt
1,12,9,26,24,25,29,22,27,26,12,11,13,13,14,18,16,17,24,24,16,26,26,3,25,15,26,25,25,24,12,5,5,5,3,14,1735.txt
1,1,9,26,24,25,29,30,28,26,12,30,13,28,29,18,30,25,3,3,16,16,16,11,16,15,27,25,26,24,12,5,5,5,3,14,1737.txt
1,1,9,26,24,25,29,30,28,26,12,30,13,28,29,18,30,25,24,24,16,26,26,11,25,15,30,25,25,24,1,27,25,25,28,14,1739.txt
1,1,9,26,24,25,29,30,28,26,12,30,13,28,29,18,30,25,24,24,6,6,6,6,6,24,23,22,22,22,1,27,25,25,28,24,1744.txt
1,14,9,26,24,25,29,30,28,26,12,30,13,28,29,18,30,25,24,24,6,6,6,6,6,24,23,22,22,22,1,27,25,25,28,24,1745.txt
1,0,9,26,24,25,29,30,28,26,12,30,13,28,29,18,30,25,24,24,16,16,16,11,16,15,27,27,26,26,1,27,25,25,28,14,1747.txt
1,12,9,26,24,25,29,30,28,26,12,30,13,28,29,18,30,25,3,3,16,26,26,3,25,15,27,25,26,24,12,5,5,5,23,14,1749.txt
1,14,9,26,24,25,29,30,28,26,12,30,13,28,29,18,30,25,24,24,16,26,26,11,25,15,30,25,25,24,1,27,25,25,28,14,1751.txt
1,0,9,26,24,25,29,30,28,26,12,30,13,28,29,18,30,13,24,24,16,27,27,11,16,15,30,25,25,24,1,27,25,25,28,14,1755.txt
1,0,9,26,24,25,29,30,28,26,12,30,13,28,29,18,30,3,24,24,6,6,6,6,6,15,30,25,25,24,1,27,25,25,28,14,1759.txt
1,1,9,26,24,25,29,30,28,26,12,30,13,28,29,18,30,25,24,24,16,26,26,11,25,15,20,20,20,7,1,27,25,25,28,21,1762.txt
28,9,9,26,24,11,0,0,0,26,3,19,16,20,18,18,30,3,0,0,6,6,6,6,6,15,11,11,11,7,1,27,25,25,28,11,1764.txt
1,0,9,26,24,20,26,28,6,2,12,30,13,28,29,2,15,1,24,24,3,3,3,3,3,0,0,0,0,0,5,5,5,5,5,12,1765.txt
1,14,9,26,24,25,29,30,28,26,12,30,13,28,29,18,30,25,24,24,16,26,26,11,25,15,6,6,6,7,1,27,25,25,28,5,1769.txt
1,1,9,26,24,25,29,30,28,26,12,30,13,28,29,18,30,25,3,3,16,26,26,11,25,15,30,27,25,26,4,4,4,4,3,14,1771.txt
1,0,9,26,24,25,29,30,28,26,12,30,13,28,29,18,30,4,24,24,16,26,26,11,25,15,30,25,25,24,1,27,25,25,28,14,1774.txt
1,0,9,26,24,25,29,30,28,26,12,30,13,28,29,18,30,25,24,24,16,26,26,11,25,15,30,25,25,24,1,27,25,25,28,14,1775.txt
1,1,9,26,24,25,29,30,28,26,12,30,13,28,29,18,30,25,24,24,6,6,6,6,6,15,30,25,25,24,1,27,25,25,28,14,1778.txt
1,12,9,26,24,25,29,30,28,26,12,30,13,28,29,18,30,25,3,3,16,16,16,3,16,15,27,25,26,24,12,5,5,5,3,14,1780.txt
1,0,9,26,24,25,29,30,28,26,12,30,13,28,29,18,30,25,24,24,6,6,6,6,6,15,30,25,25,24,1,27,25,25,28,14,1783.txt
1,0,9,4,24,25,29,30,28,26,12,30,13,28,29,18,30,25,24,24,6,6,6,6,6,15,27,25,26,24,1,27,25,25,28,14,1784.txt
1,14,9,26,24,25,29,30,28,26,12,30,13,28,29,18,30,25,3,3,16,26,26,11,25,24,23,22,22,22,12,5,5,5,3,24,1787.txt
1,14,9,26,24,25,29,30,28,26,12,30,13,28,29,18,30,25,24,24,16,26,26,11,25,15,6,6,6,7,1,27,25,25,28,5,1789.txt
1,0,9,26,24,25,29,30,28,13,12,30,13,28,29,17,30,25,24,24,6,6,6,6,6,24,23,22,22,22,2,2,2,2,2,24,1791.txt
1,1,9,26,24,25,29,30,28,26,12,30,13,28,29,18,30,25,24,24,16,26,26,11,25,15,27,28,26,27,1,27,25,25,28,14,1794.txt
1,12,9,26,24,25,29,30,28,26,12,30,13,28,29,18,30,25,24,24,16,26,26,11,25,15,27,25,26,24,12,5,5,5,3,14,1798.txt
1,0,9,26,24,25,6,9,3,26,12,30,13,28,29,18,23,13,24,24,8,9,9,8,9,15,30,27,25,26,1,27,25,25,28,14,1800.txt
1,0,9,26,24,25,29,30,28,26,12,30,13,28,29,18,30,25,24,24,16,16,16,3,16,15,30,12,25,13,1,1,1,1,1,14,1801.txt
1,0,9,26,24,25,29,30,28,26,12,30,13,28,29,18,30,25,24,24,6,6,6,6,6,15,30,25,25,24,1,27,25,25,28,14,1803.txt
1,0,9,26,24,25,29,30,28,26,12,30,13,28,29,18,30,25,24,24,6,6,6,6,6,15,12,26,12,25,1,1,1,1,1,14,1805.txt
1,0,9,26,24,25,29,30,28,26,12,30,13,28,29,18,30,3,24,24,6,6,6,6,6,15,30,25,25,24,1,27,25,25,28,14,1808.txt
1,12,9,26,24,25,29,22,27,26,12,11,13,13,14,18,16,17,3,3,16,16,16,3,16,15,27,25,26,24,12,5,5,5,3,14,1810.txt
1,0,9,26,24,25,29,30,28,26,12,30,13,28,29,18,30,25,24,24,16,26,26,12,25,15,30,25,25,24,1,27,25,25,28,14,1812.txt
1,0,9,26,24,25,29,30,28,26,12,30,13,28,29,18,30,25,24,24,6,6,6,6,6,15,30,25,25,24,1,1,1,1,1,14,1814.txt
28,14,24,16,15,4,14,2,2,4,0,0,4,7,7,4,21,20,19,20,22,13,14,21,14,14,15,16,4,16,18,18,18,18,19,13,1816.txt
28,0,16,26,24,11,4,11,5,12,3,19,16,20,18,7,30,13,9,9,8,9,9,8,9,24,23,22,22,22,1,27,25,25,28,24,1818.txt
1,12,9,26,24,25,29,30,28,26,12,30,13,28,29,18,30,25,3,3,16,26,26,11,25,15,30,25,25,24,12,5,5,5,3,14,1820.txt
1,0,9,26,24,25,29,30,28,26,12,30,13,28,29,18,30,25,24,24,16,26,26,11,25,15,30,25,25,24,12,5,5,5,3,14,1824.txt
1,1,9,26,24,25,29,30,28,26,12,30,13,28,29,18,30,25,24,24,6,6,6,6,6,15,30,27,25,26,1,27,25,25,28,14,1825.txt
1,12,9,26,24,25,29,30,28,26,12,30,13,28,29,18,30,25,24,24,16,16,16,3,16,15,27,25,26,24,12,5,5,5,26,14,1827.txt
1,0,9,26,24,25,29,30,28,26,12,30,13,28,29,18,30,25,24,24,16,26,26,11,25,15,30,25,25,24,19,21,11,11,23,14,1830.txt
1,1,9,26,24,25,29,30,28,26,12,30,13,28,29,18,30,25,24,24,6,6,6,6,6,15,30,25,25,24,1,27,25,25,28,14,1831.txt
12,1,9,16,15,0,29,30,28,6,23,27,4,17,0,27,20,19,28,28,6,6,6,6,6,15,30,27,25,26,2,2,2,2,2,14,1833.txt
1,0,9,26,24,25,29,30,28,26,12,30,13,28,29,18,30,25,24,24,6,6,6,6,6,15,27,25,26,24,1,27,25,25,28,14,1836.txt
1,0,15,26,24,25,0,0,0,26,12,30,13,28,29,18,30,3,24,24,6,6,6,6,6,15,30,25,25,24,1,27,25,25,28,14,1838.txt
30,9,15,26,24,11,6,9,10,26,3,19,16,20,18,18,30,3,9,9,6,6,6,6,6,24,23,22,22,22,1,27,25,25,28,4,1840.txt
1,1,9,26,24,25,29,30,28,26,12,30,13,28,29,18,30,25,24,24,16,26,26,11,25,24,23,22,22,22,1,27,25,25,28,24,1842.txt
1,14,24,16,15,5,8,25,19,28,23,14,4,17,0,5,5,5,24,24,20,22,21,19,20,15,26,25,25,24,7,7,7,7,7,14,1844.txt
1,0,9,26,24,25,29,30,28,26,12,30,13,28,29,18,30,25,24,24,6,6,6,6,6,15,30,25,25,24,1,27,25,25,28,14,1847.txt
1,1,9,26,24,25,29,30,28,26,12,30,13,28,29,18,30,25,24,24,6,6,6,6,6,15,30,25,25,24,1,27,25,25,28,14,1850.txt
1,0,15,26,24,25,0,0,0,12,12,30,13,28,29,7,28,3,9,9,25,28,29,30,6,24,23,22,22,22,1,27,25,25,28,24,1851.txt
1,1,9,26,24,25,29,30,28,26,12,30,13,28,29,18,30,25,24,24,6,6,6,6,6,24,23,22,22,22,1,27,25,25,28,24,1854.txt
1,0,9,26,24,25,29,22,27,26,28,26,25,26,25,25,25,17,24,24,19,20,24,3,24,21,26,25,25,24,11,5,5,5,3,14,1855.txt
1,0,9,26,24,25,29,30,28,26,12,30,13,28,29,18,30,25,24,24,6,6,6,6,6,24,23,22,22,22,1,27,25,25,28,24,1858.txt
1,1,9,26,24,25,29,30,28,26,12,30,13,28,29,18,30,25,24,24,6,6,6,6,6,24,23,22,22,22,1,27,25,25,28,24,1860.txt
1,1,9,26,24,25,29,22,27,26,12,11,13,13,14,18,16,17,24,24,16,26,26,11,25,15,27,25,26,24,1,27,25,25,28,14,1861.txt
1,1,9,26,24,25,29,30,28,26,12,30,13,28,29,18,30,25,3,3,16,26,26,3,25,15,27,27,26,26,12,5,5,5,5,14,1863.txt
1,0,9,26,24,25,29,30,28,26,12,30,13,28,29,18,30,25,24,24,6,6,6,6,6,15,12,25,12,24,1,27,25,25,28,14,1865.txt
1,1,9,26,24,25,29,30,28,26,12,30,13,28,29,18,30,25,24,24,6,6,6,6,6,15,30,27,25,26,1,27,25,25,28,14,1867.txt
1,1,9,26,24,25,29,30,28,26,12,30,13,28,29,18,30,25,24,24,6,6,6,6,6,15,30,25,25,24,1,27,25,25,28,14,1870.txt
1,0,9,26,24,25,29,30,28,26,28,26,25,26,25,25,25,27,24,24,6,6,6,6,6,21,30,25,25,24,1,27,25,25,28,14,1872.txt
1,0,9,26,24,25,29,22,27,26,12,11,13,13,14,18,16,17,24,24,16,26,26,11,25,15,26,25,25,24,1,27,25,25,28,14,1874.txt
1,0,9,26,24,25,29,30,28,26,12,30,13,28,29,18,30,25,24,24,6,6,6,6,6,15,30,25,25,24,1,27,25,25,28,14,1876.txt
1,0,9,26,24,25,29,30,28,26,12,30,13,28,29,18,30,25,24,24,6,6,6,6,6,24,23,22,22,22,1,27,25,25,28,24,1879.txt
1,0,9,26,24,25,29,30,28,26,12,30,13,28,29,18,30,25,24,24,16,16,16,3,26,15,29,25,28,24,1,27,25,25,28,14,1880.txt
1,12,9,26,24,25,29,30,28,26,12,30,13,28,29,18,30,25,3,3,16,16,16,3,16,15,27,25,26,24,12,5,5,5,3,14,1884.txt
1,0,9,26,24,25,29,30,28,26,12,30,13,28,29,18,30,25,24,24,25,28,29,30,6,24,23,22,22,22,1,27,25,25,28,24,1885.txt
1,0,9,26,24,25,0,0,0,26,12,30,13,28,29,18,30,3,24,24,6,6,6,6,6,24,23,22,22,22,1,27,25,25,28,24,1887.txt
1,14,9,26,24,25,29,30,28,26,12,30,13,28,29,18,30,25,28,28,16,26,26,11,25,24,23,22,22,22,19,21,21,21,3,24,1890.txt
1,0,9,26,24,25,29,30,28,26,12,30,13,28,29,18,30,25,24,24,6,6,6,6,6,15,30,25,25,24,1,27,25,25,28,14,1892.txt
1,0,9,26,24,25,29,30,28,26,12,30,13,28,29,18,30,25,24,24,6,6,6,6,6,15,30,25,25,24,1,27,25,25,28,14,1894.txt
1,0,9,26,24,25,29,30,28,26,12,30,13,28,29,18,30,25,24,24,16,26,26,11,25,6,10,10,10,11,1,27,25,25,28,10,1898.txt
1,0,9,26,24,25,29,30,28,26,12,30,13,28,29,18,30,25,24,24,16,26,26,11,25,15,6,6,6,7,0,0,0,0,0,5,1900.txt
1,1,9,26,24,25,29,30,28,26,12,30,13,28,29,18,30,25,24,24,6,6,6,6,6,15,30,27,25,26,1,27,25,25,28,14,1901.txt
1,1,24,16,17,6,1,1,8,6,15,14,4,8,5,18,20,19,24,24,20,22,21,19,20,1,9,9,9,30,2,2,2,2,2,1,1903.txt
1,1,9,26,24,25,29,30,28,26,28,26,25,26,25,25,25,27,24,24,19,20,24,18,24,24,23,22,22,22,1,27,25,25,28,24,1906.txt
1,0,9,26,24,25,29,30,28,26,12,30,13,28,29,18,30,25,24,24,6,6,6,6,6,15,27,25,26,24,1,27,25,25,28,14,1908.txt
1,1,9,26,24,25,29,30,28,26,12,30,13,28,29,18,30,25,24,24,16,26,26,11,25,15,30,25,25,24,1,27,25,25,28,14,1911.txt
30,0,2,15,2,3,6,9,10,3,2,2,2,2,2,3,19,13,8,8,28,25,25,26,29,24,23,22,22,22,1,27,25,25,28,24,1913.txt
1,1,9,26,24,25,29,30,28,26,12,30,13,28,29,18,30,25,28,28,16,26,26,11,25,15,30,25,25,24,1,27,25,25,28,14,1914.txt
28,0,15,26,24,11,0,0,0,26,13,12,14,14,15,18,30,3,9,9,6,6,6,6,6,24,23,22,22,22,1,27,25,25,28,24,1916.txt
1,0,9,26,24,25,29,30,28,26,12,30,13,28,29,18,30,25,24,24,16,26,26,11,25,15,30,25,25,24,1,27,25,25,28,14,1919.txt
1,0,9,26,24,25,29,30,28,26,12,30,13,28,29,18,30,25,24,24,6,6,6,6,6,15,30,25,25,24,1,27,25,25,28,14,1921.txt
1,0,9,26,24,25,29,30,28,26,12,30,13,28,29,18,30,25,24,24,6,6,6,6,6,24,23,22,22,22,1,27,25,25,28,24,1923.txt
1,0,9,26,24,25,29,30,28,26,12,30,13,28,29,18,30,25,24,24,16,26,26,11,25,15,30,27,25,26,1,27,25,25,28,14,1926.txt
1,0,9,26,24,25,29,30,28,26,12,30,13,28,29,18,30,25,24,24,16,26,26,11,25,15,30,25,25,24,1,27,25,25,28,14,1928.txt
1,0,9,26,24,25,29,30,28,26,12,30,13,28,29,18,30,3,24,24,6,6,6,6,6,15,30,25,25,24,1,27,25,25,28,14,1930.txt
1,0,9,26,24,25,29,30,28,26,12,30,13,28,29,18,30,25,3,3,6,6,6,6,6,15,30,25,25,24,1,27,25,25,28,14,1932.txt
1,0,9,26,24,25,29,30,28,26,12,30,13,28,29,18,30,3,24,24,6,6,6,6,6,15,30,25,25,24,1,27,25,25,28,14,1934.txt
1,1,9,26,24,25,29,30,28,26,12,30,13,28,29,18,30,25,24,24,16,26,26,11,25,15,30,25,25,24,1,27,25,25,28,14,1937.txt
1,0,9,26,24,25,29,30,28,26,12,30,13,28,29,18,30,25,28,28,6,6,6,6,6,15,27,25,26,24,1,27,25,25,28,14,1938.txt
1,14,9,26,24,25,29,30,28,26,12,30,13,28,29,18,30,25,3,3,16,26,26,11,25,15,11,11,11,7,12,5,5,5,3,11,1941.txt
1,0,9,26,24,25,29,30,28,26,12,30,13,28,29,18,30,25,24,24,16,26,26,11,25,15,30,25,25,24,1,27,25,25,28,14,1942.txt
1,0,9,26,24,25,29,30,28,26,12,30,13,28,29,18,30,25,24,24,6,6,6,6,6,15,30,27,25,26,1,27,25,25,28,14,1944.txt
1,14,9,26,24,25,29,30,28,26,12,30,13,28,29,18,30,25,3,3,16,26,26,11,25,24,23,22,22,22,12,5,5,5,15,24,1947.txt
1,0,9,26,24,25,29,30,28,26,12,30,13,28,29,18,30,25,24,24,16,26,26,11,25,15,30,25,25,24,1,27,25,25,28,14,1948.txt
1,1,9,26,24,25,29,30,28,26,12,30,13,28,29,18,30,25,24,24,16,26,26,11,25,15,30,25,25,24,1,27,25,25,28,14,1951.txt
1,1,9,26,24,25,29,30,28,26,12,30,13,28,29,18,30,25,24,24,16,26,26,11,25,24,23,22,22,22,23,5,5,5,11,24,1952.txt
1,0,9,26,24,25,29,30,28,26,12,30,13,28,29,18,30,25,24,24,6,6,6,6,6,15,30,25,25,24,1,27,25,25,28,14,1954.txt
1,0,9,26,24,25,29,30,28,26,12,30,13,28,29,18,30,25,24,24,6,6,6,6,6,15,30,27,25,26,1,27,25,25,28,14,1956.txt
1,0,9,26,24,25,29,30,28,26,12,30,13,28,29,18,30,25,24,24,6,6,6,6,6,24,23,22,22,22,1,27,25,25,28,24,1959.txt
28,5,15,26,24,11,4,11,5,26,3,19,16,20,18,18,30,4,9,9,28,25,25,26,29,24,23,22,22,22,19,21,21,21,23,24,1961.txt
1,14,9,26,24,25,29,30,28,26,12,30,13,28,29,18,30,25,24,24,16,26,26,11,25,24,23,22,22,22,1,27,25,25,28,24,1964.txt
1,1,9,26,24,25,29,30,28,26,12,30,13,28,29,18,30,25,24,24,16,26,26,11,25,15,30,25,25,24,1,27,25,25,28,23,1965.txt
1,0,9,26,24,20,26,28,6,2,12,30,13,28,29,2,15,1,24,24,3,3,3,3,3,0,0,0,0,0,1,27,25,25,28,12,1970.txt
1,1,9,26,24,25,29,30,28,26,12,30,13,28,29,18,30,25,24,24,6,6,6,6,6,15,30,25,25,24,1,27,25,25,28,14,1973.txt
1,0,9,26,24,25,29,30,28,26,12,30,13,28,29,18,30,25,24,24,16,26,26,11,25,15,30,25,25,24,1,27,25,25,28,14,1974.txt
26,1,9,26,24,25,29,30,28,26,12,30,13,28,29,18,30,25,24,24,6,6,6,6,6,15,6,6,6,7,1,27,25,25,28,5,1976.txt
1,1,27,0,15,6,29,30,28,6,15,27,0,17,0,0,30,25,3,3,4,26,26,4,25,15,30,25,25,24,0,0,0,0,0,14,1979.txt
1,1,9,26,24,25,29,30,28,26,12,30,13,28,29,18,30,25,24,24,6,6,6,6,6,15,27,25,26,24,1,27,25,25,28,14,1981.txt
28,28,15,26,24,11,6,9,10,26,13,12,14,14,15,18,30,4,7,7,29,13,14,28,14,2,2,2,2,2,20,20,20,20,5,2,1983.txt
26,14,9,26,24,25,29,30,28,26,12,30,13,28,29,18,30,25,24,24,16,26,26,11,25,5,5,5,5,4,12,21,21,21,26,24,1984.txt
28,5,16,26,24,27,6,9,22,13,13,12,14,14,15,8,30,22,8,8,28,25,25,26,29,24,23,22,22,22,23,21,12,12,26,24,1986.txt
1,0,9,26,24,25,29,30,28,26,12,30,13,28,29,18,30,25,24,24,16,26,26,11,25,15,30,25,25,24,1,27,25,25,28,14,1989.txt
1,0,9,26,24,25,29,30,28,26,12,30,13,28,29,18,30,25,24,24,6,6,6,6,6,15,27,25,26,24,1,27,25,25,28,14,1991.txt
1,14,9,26,24,25,29,30,28,26,12,30,13,28,29,18,30,25,3,3,16,26,26,11,25,24,23,22,22,22,11,5,5,5,3,24,1992.txt
1,1,9,26,24,25,29,30,28,26,12,30,13,28,29,18,30,25,24,24,6,6,6,6,6,15,30,25,25,24,1,27,25,25,28,14,1995.txt
1,14,9,26,24,25,29,30,28,26,12,30,13,28,29,18,30,25,24,24,6,6,6,6,6,15,30,25,25,24,1,27,25,25,28,14,1997.txt
1,0,9,26,24,25,29,30,28,26,12,30,13,28,29,18,30,25,24,24,16,16,16,3,16,15,30,25,25,24,11,5,5,5,5,14,1999.txt
1,0,9,26,24,25,29,30,28,26,12,30,13,28,29,18,30,25,24,24,6,6,6,6,6,15,30,25,25,24,1,27,25,25,28,14,2001.txt
1,14,9,26,24,25,29,30,28,26,12,30,13,28,29,18,30,25,24,24,16,26,26,11,25,24,23,22,22,22,12,5,5,5,23,24,2005.txt
1,0,9,26,24,25,29,30,28,26,12,30,13,28,29,18,30,25,24,24,16,26,26,11,25,15,27,25,26,24,1,27,25,25,28,14,2007.txt
1,1,9,26,24,25,29,30,28,26,12,30,13,28,29,18,30,25,24,24,16,26,26,11,25,24,23,22,22,22,1,27,25,25,28,24,2008.txt
1,14,3,24,9,13,29,30,28,3,20,21,26,18,21,1,8,25,3,3,16,26,26,11,25,12,11,11,11,7,20,20,20,20,3,11,2012.txt
28,30,15,26,24,11,6,9,10,26,13,12,14,14,15,18,30,10,9,9,28,25,25,26,29,24,23,22,22,22,1,27,25,25,28,4,2015.txt
1,1,9,26,24,25,29,30,28,26,12,30,13,28,29,18,30,25,24,24,6,6,6,6,6,15,6,6,6,7,1,27,25,25,28,5,2017.txt
1,0,9,26,24,25,29,30,28,26,12,30,13,28,29,18,30,25,24,24,6,6,6,6,6,15,30,25,25,24,1,27,25,25,28,14,2020.txt
1,1,9,26,24,25,29,30,28,26,12,30,13,28,29,18,30,25,28,28,6,6,6,6,6,15,30,25,25,24,3,3,3,3,4,14,2022.txt
1,0,9,26,24,25,29,30,28,26,12,30,13,28,29,18,30,25,24,24,6,6,6,6,6,15,27,25,26,24,1,27,25,25,28,14,2024.txt
1,1,9,26,24,25,29,30,28,26,12,30,13,28,29,18,30,25,24,24,16,26,26,11,25,24,23,22,22,22,1,27,25,25,28,24,2026.txt
1,12,9,26,24,25,29,30,28,26,12,30,13,28,29,18,30,25,3,3,16,26,26,3,25,15,27,25,26,24,12,5,5,5,3,14,2029.txt
1,0,9,26,24,25,29,30,28,26,12,30,13,28,29,18,30,25,24,24,16,26,26,3,25,15,27,27,26,26,1,1,1,1,1,14,2031.txt
1,1,9,26,24,25,29,30,28,26,12,30,13,28,29,18,30,25,24,24,6,6,6,6,6,24,23,22,22,22,1,27,25,25,28,24,2032.txt
1,1,9,26,24,25,29,30,28,26,12,30,13,28,29,18,30,25,24,24,16,26,26,11,25,15,30,27,25,26,1,27,25,25,28,14,2034.txt
1,0,9,26,24,25,29,30,28,26,12,30,13,28,29,18,30,25,24,24,6,6,6,6,6,15,30,25,25,24,1,27,25,25,28,14,2037.txt
1,0,9,26,24,25,29,30,28,26,12,30,13,28,29,18,30,25,24,24,16,26,26,11,25,15,30,25,25,24,12,5,5,5,5,14,2038.txt
1,24,9,26,24,25,29,30,28,26,12,30,13,28,29,18,30,25,3,3,16,26,26,11,25,15,30,25,25,24,12,5,5,5,5,14,2040.txt
1,1,9,26,24,25,29,30,28,26,12,30,13,28,29,18,30,25,24,24,6,6,6,6,6,15,30,25,25,24,1,27,25,25,28,14,2043.txt
1,0,9,26,24,25,29,30,28,26,12,30,13,28,29,18,30,25,24,24,6,6,6,6,6,15,30,25,25,24,1,27,25,25,28,14,2045.txt
1,0,9,26,24,25,29,30,28,26,12,30,13,28,29,18,30,25,24,24,16,26,26,11,25,15,30,25,25,24,1,27,25,25,28,14,2049.txt
1,0,9,26,24,25,29,30,28,26,12,30,13,28,29,18,30,25,24,24,6,6,6,6,6,15,30,25,25,24,1,27,25,25,28,14,2052.txt
1,0,9,26,24,25,29,30,28,26,12,30,13,28,29,18,30,25,24,24,6,6,6,6,6,15,30,25,25,24,1,27,25,25,28,14,2053.txt
1,0,9,26,24,25,29,30,28,26,12,30,13,28,29,18,30,25,24,24,6,6,6,6,6,15,30,25,25,24,1,27,25,25,28,14,2055.txt
1,14,9,26,24,25,29,30,28,26,12,30,13,28,29,18,30,25,24,24,6,6,6,6,6,24,23,22,22,22,1,27,25,25,28,24,2057.txt
1,0,9,26,24,25,29,30,28,26,12,30,13,28,29,18,30,3,24,24,6,6,6,6,6,15,30,25,25,24,1,27,25,25,28,14,2060.txt
1,1,9,26,24,25,29,30,28,26,12,30,13,28,29,18,30,25,24,24,6,6,6,6,6,9,8,8,8,8,1,27,25,25,28,7,2062.txt
1,1,9,26,24,25,29,30,28,26,12,30,13,28,29,18,30,25,24,24,16,26,26,11,25,15,30,25,25,24,1,27,25,25,28,14,2066.txt
1,0,9,26,24,25,29,30,28,26,12,30,13,28,29,18,30,25,24,24,16,26,26,3,25,15,30,25,25,24,1,27,25,25,28,14,2067.txt
1,0,9,26,24,25,29,30,28,26,12,30,13,28,29,18,30,25,3,3,16,26,26,11,25,24,23,22,22,22,12,5,5,5,3,24,2069.txt
1,1,9,26,24,25,29,30,28,26,12,30,13,28,29,18,30,25,24,24,16,26,26,11,25,15,30,25,25,24,1,27,25,25,28,14,2072.txt
1,1,9,26,24,25,29,30,28,26,12,30,13,28,29,18,30,25,24,24,6,6,6,6,6,15,30,27,25,26,1,27,25,25,28,14,2074.txt
1,14,9,26,24,25,29,30,28,26,12,30,13,28,29,18,30,25,24,24,16,26,26,11,25,2,2,2,2,2,20,20,20,20,23,2,2078.txt
1,1,9,26,24,25,29,30,28,26,12,30,13,28,29,18,30,25,24,24,6,6,6,6,6,15,30,27,25,26,1,27,25,25,28,14,2080.txt
1,0,9,26,24,25,29,30,28,26,12,30,13,28,29,18,30,25,24,24,6,6,6,6,6,15,30,25,25,24,1,27,25,25,28,14,2083.txt
1,0,9,26,24,25,29,30,28,26,12,30,13,28,29,18,30,25,24,24,6,6,6,6,6,15,30,27,25,26,1,27,25,25,28,14,2085.txt
1,1,9,26,24,25,29,30,28,26,12,30,13,28,29,18,30,25,24,24,16,26,26,11,25,15,30,25,25,24,1,27,25,25,28,14,2087.txt
1,1,9,26,24,25,29,30,28,26,12,30,13,28,29,18,30,25,24,24,16,26,26,11,25,15,30,25,25,24,1,27,25,25,28,14,2090.txt
1,1,9,26,24,25,29,30,28,26,12,30,13,28,29,18,30,25,24,24,6,6,6,6,6,24,23,22,22,22,1,27,25,25,28,24,2092.txt
1,1,9,26,24,25,29,30,28,26,12,30,13,28,29,18,30,25,24,24,16,26,26,11,25,15,30,25,25,24,1,27,25,25,28,14,2093.txt
30,1,15,26,28,25,28,27,10,13,12,30,13,28,29,8,27,10,8,8,28,25,25,26,29,24,23,22,22,22,1,27,25,25,28,24,2096.txt
1,1,9,26,24,25,29,30,28,26,12,30,13,28,29,18,30,25,24,24,16,26,26,11,25,15,27,12,26,13,1,27,25,25,28,14,2098.txt
12,0,9,23,24,19,4,4,5,19,22,8,21,23,22,27,30,13,24,24,8,9,9,8,9,24,23,22,22,22,14,14,14,14,13,19,2099.txt
1,0,9,26,24,25,29,30,28,26,12,30,13,28,29,18,30,25,24,24,6,6,6,6,6,15,30,25,25,24,1,27,25,25,28,14,2101.txt
1,0,9,26,24,25,29,30,28,26,12,30,13,28,29,18,30,25,24,24,16,26,26,11,25,15,30,25,25,24,1,27,25,25,28,14,2103.txt
1,0,9,26,24,25,29,30,28,26,12,30,13,28,29,18,30,25,3,3,16,26,26,3,25,15,27,25,26,24,12,5,5,5,5,14,2105.txt
1,0,9,26,24,25,29,30,28,26,12,30,13,28,29,18,30,25,24,24,16,26,26,11,25,15,30,27,25,26,1,27,25,25,28,14,2107.txt
1,0,9,26,24,25,29,30,28,26,12,30,13,28,29,18,30,25,24,24,6,6,6,6,6,15,30,27,25,26,1,27,25,25,28,14,2110.txt
1,0,9,26,24,25,29,30,28,26,12,30,13,28,29,18,30,25,24,24,16,26,26,11,25,15,27,25,26,24,23,5,5,5,23,14,2113.txt
1,1,9,26,24,25,29,30,28,26,12,30,13,28,29,18,30,25,24,24,16,26,26,11,25,24,23,22,22,22,1,27,25,25,28,24,2114.txt
1,0,9,26,24,25,29,30,28,26,12,30,13,28,29,18,30,25,24,24,16,16,16,11,16,15,27,25,26,24,1,27,25,25,28,23,2117.txt
1,1,9,26,24,25,29,30,28,26,12,30,13,28,29,18,30,25,24,24,16,26,26,11,25,15,30,25,25,24,1,27,25,25,28,14,2119.txt
1,0,9,26,24,25,29,30,28,26,12,30,13,28,29,18,30,25,24,24,6,6,6,6,6,15,30,25,25,24,1,27,25,25,28,14,2121.txt
30,5,2,15,10,23,4,11,5,3,8,7,11,10,19,1,19,13,8,8,28,25,25,26,29,24,23,22,22,22,19,5,5,5,26,24,2122.txt
1,14,9,26,24,25,29,30,28,26,12,30,13,28,29,18,30,25,22,30,16,26,26,3,25,15,30,25,25,24,20,20,20,20,20,14,2125.txt
1,1,9,26,24,25,29,30,28,26,12,30,13,28,29,18,30,25,24,24,16,26,26,11,25,15,30,27,25,26,1,27,25,25,28,14,2126.txt
1,0,9,26,24,25,29,30,28,26,12,30,13,28,29,18,30,25,24,24,16,26,26,3,25,15,27,25,26,24,1,27,25,25,28,14,2129.txt
1,1,9,26,24,25,29,30,28,26,12,30,13,28,29,18,30,25,24,24,6,6,6,6,6,24,23,22,22,22,1,27,25,25,28,24,2130.txt
1,1,9,26,24,25,29,30,28,26,12,30,13,28,29,18,3,25,3,3,16,26,26,11,25,15,30,27,25,26,1,27,25,25,28,14,2133.txt
1,1,9,26,24,25,29,30,28,26,28,26,25,26,25,25,25,27,24,24,6,6,6,6,6,2,2,2,2,2,1,27,25,25,28,2,2135.txt
1,0,9,26,24,25,29,30,28,26,12,30,13,28,29,18,30,25,24,24,16,26,26,11,25,15,30,25,25,24,12,5,5,5,3,14,2137.txt
1,1,9,26,24,25,29,22,27,26,12,11,13,13,14,18,16,17,16,15,16,26,26,3,25,15,7,7,7,7,1,27,25,25,28,6,2139.txt
1,0,9,26,24,25,29,30,28,26,12,30,13,28,29,18,30,25,24,24,6,6,6,6,6,15,30,25,25,24,1,27,25,25,28,14,2141.txt
1,1,9,26,24,25,29,30,28,26,12,30,13,28,29,18,30,25,24,24,16,26,26,11,25,15,11,11,11,7,1,27,25,25,28,11,2142.txt
28,0,9,26,24,11,6,9,10,12,3,19,16,20,18,8,30,13,17,17,8,9,9,8,9,5,5,5,5,4,1,27,25,25,28,4,2145.txt
1,0,9,26,24,25,29,30,28,26,12,30,13,28,29,18,30,25,24,24,16,26,26,11,25,15,30,27,25,26,1,27,25,25,28,14,2147.txt
1,1,27,0,17,6,1,1,8,6,16,27,0,17,4,0,20,19,3,3,2,2,2,2,2,1,1,1,1,1,2,2,2,2,2,1,2149.txt
1,1,9,26,24,25,29,30,28,26,12,30,13,28,29,18,30,25,3,3,16,26,26,11,25,15,30,25,25,24,1,27,25,25,28,14,2151.txt
1,0,9,26,24,25,29,30,28,26,12,30,13,28,29,18,30,25,24,24,16,26,26,11,25,15,30,25,25,24,1,27,25,25,28,14,2153.txt
1,28,9,26,24,25,29,30,28,26,12,30,13,28,29,18,30,25,24,24,16,26,26,11,25,2,2,2,2,2,1,27,25,25,28,2,2154.txt
1,0,9,26,24,20,26,22,6,2,12,11,13,13,14,2,15,1,24,24,3,3,3,3,3,0,0,0,0,0,5,12,11,11,26,12,2156.txt
1,1,9,26,24,25,29,30,28,26,12,30,13,28,29,18,30,25,24,24,16,26,26,11,25,15,30,25,25,24,1,27,25,25,28,14,2160.txt
1,0,9,26,24,25,29,30,28,26,12,30,13,28,29,18,30,25,24,24,16,26,26,11,25,15,27,25,26,24,1,27,25,25,28,14,2161.txt
1,0,9,26,24,25,29,30,28,26,12,30,13,28,29,18,30,8,24,24,16,26,26,11,25,15,30,25,25,24,19,21,11,11,20,14,2165.txt
28,1,9,26,24,25,6,9,10,26,12,30,13,28,29,18,30,25,9,9,6,6,6,6,6,24,23,22,22,22,1,27,25,25,28,24,2166.txt
1,0,9,26,24,25,29,30,28,26,12,30,13,28,29,18,30,25,24,24,6,6,6,6,6,24,23,22,22,22,1,27,25,25,28,24,2168.txt
1,0,9,26,24,25,22,30,28,26,12,30,13,28,29,18,30,25,24,24,6,6,6,6,6,15,30,25,25,24,1,27,25,25,28,14,2171.txt
1,1,9,26,24,25,29,30,28,26,12,30,13,28,29,18,30,25,24,24,6,6,6,6,6,15,30,25,25,24,1,27,25,25,28,14,2173.txt
1,1,9,26,24,25,29,30,28,26,12,30,13,28,29,18,30,25,24,24,16,26,26,11,25,15,30,25,25,24,1,27,25,25,28,14,2176.txt
1,1,9,26,24,25,29,30,28,26,12,30,13,28,29,18,30,25,24,24,6,6,6,6,6,15,6,6,6,7,1,27,25,25,28,5,2177.txt
1,0,9,26,24,25,29,30,28,26,12,30,13,28,29,18,30,25,24,24,6,6,6,6,6,15,30,25,25,24,1,27,25,25,28,14,2179.txt
1,1,9,26,24,25,29,30,28,26,28,26,25,26,25,25,25,27,24,24,19,20,24,18,24,21,30,25,25,24,1,27,25,25,28,14,2181.txt
1,0,9,26,24,25,29,30,28,26,12,30,13,28,29,18,30,25,24,24,6,6,6,6,6,15,30,12,25,13,1,1,1,1,1,14,2184.txt
1,0,9,26,24,25,29,30,28,26,12,30,13,28,29,18,30,25,24,24,6,6,6,6,6,15,30,25,25,24,1,27,25,25,28,14,2186.txt
1,1,9,26,24,25,29,30,28,26,12,30,13,28,29,18,30,25,24,24,16,26,26,11,25,24,23,22,22,22,1,27,25,25,28,24,2188.txt
1,0,9,26,24,25,29,30,28,26,12,30,13,28,29,18,30,25,24,24,16,26,26,11,25,24,23,22,22,22,1,27,25,25,28,24,2189.txt
1,0,9,26,24,25,29,30,28,26,12,30,13,28,29,18,30,25,24,24,16,26,26,11,25,15,30,27,25,26,1,27,25,25,28,14,2191.txt
1,0,9,26,24,25,29,22,27,26,12,11,13,13,14,18,16,17,24,24,16,16,16,3,16,15,27,25,26,24,12,5,5,5,3,14,2194.txt
1,1,9,26,24,25,29,22,27,26,12,11,13,13,14,18,16,17,24,24,6,6,6,6,6,15,27,25,26,24,1,27,25,25,28,14,2196.txt
1,12,9,26,24,25,29,30,28,26,12,30,13,28,29,18,30,25,24,24,16,16,16,11,16,15,30,25,25,24,12,21,12,12,26,14,2200.txt
1,0,9,26,24,25,29,30,28,26,12,30,13,28,29,18,30,25,24,24,6,6,6,6,6,15,27,27,26,26,1,1,1,1,1,14,2201.txt
1,12,9,26,24,25,29,30,28,26,12,30,13,28,29,18,30,25,3,3,16,26,26,11,25,15,30,25,25,24,12,21,11,11,26,14,2204.txt
1,12,9,26,24,25,29,30,28,26,12,30,13,28,29,18,30,25,24,24,16,26,26,11,25,15,27,12,26,13,23,21,11,11,26,14,2206.txt
1,0,9,26,24,25,29,30,28,26,12,30,13,28,29,18,30,25,24,24,16,26,26,11,25,15,30,27,25,26,1,27,25,25,28,14,2209.txt
1,0,9,26,24,25,29,30,28,26,12,30,13,28,29,18,30,25,24,24,6,6,6,6,6,15,30,25,25,24,1,27,25,25,28,14,2211.txt
1,0,9,26,24,25,29,30,28,26,12,30,13,28,29,18,30,25,24,24,6,6,6,6,6,15,27,25,26,24,1,1,1,1,1,14,2213.txt
1,12,9,26,24,25,29,30,28,26,12,30,13,28,29,18,30,25,24,24,16,26,26,11,25,15,27,25,26,24,1,27,25,25,28,14,2215.txt
1,12,9,26,24,25,29,22,27,26,12,11,13,13,14,18,16,17,3,3,16,16,16,3,16,15,27,25,26,24,12,5,5,5,14,14,2217.txt
1,0,9,26,24,25,29,30,28,26,12,30,13,28,29,18,30,25,24,24,6,6,6,6,6,15,27,12,26,13,1,1,1,1,1,14,2219.txt
1,0,3,24,9,13,29,22,27,3,20,21,26,1,10,1,9,17,3,3,16,26,26,11,25,15,6,6,6,9,12,5,5,5,3,5,2220.txt
1,1,9,26,24,25,29,30,28,26,12,30,13,28,29,18,30,25,24,24,6,6,6,6,6,15,27,27,26,26,1,27,25,25,28,14,2223.txt
1,0,9,26,24,25,29,30,28,26,12,30,13,28,29,18,30,25,24,24,6,6,6,6,6,15,30,25,25,24,1,1,1,1,1,14,2225.txt
1,1,9,26,24,25,29,30,28,26,12,30,13,28,29,18,30,25,24,24,6,6,6,6,6,15,30,12,25,13,1,1,1,1,1,14,2227.txt
1,1,9,26,24,25,29,30,28,26,12,30,13,28,29,18,30,25,24,24,6,6,6,6,6,15,30,25,25,24,1,27,25,25,28,14,2229.txt
1,0,9,26,24,25,29,30,28,26,12,30,13,28,29,18,30,25,24,24,16,26,26,11,25,15,27,25,26,24,1,27,25,25,28,14,2231.txt
1,0,9,26,24,25,29,30,28,26,12,30,13,28,29,18,30,25,24,24,16,26,26,11,25,15,30,25,25,24,1,27,25,25,28,14,2232.txt
1,0,24,16,18,5,8,25,19,28,23,14,4,0,0,5,20,19,24,24,6,6,6,6,6,15,30,25,25,24,3,3,3,3,4,14,2234.txt
1,1,9,26,24,25,29,22,27,26,12,11,13,13,14,18,16,17,24,24,16,16,16,11,16,11,27,25,26,24,1,27,25,25,28,14,2237.txt
1,1,9,26,24,25,29,30,28,26,12,30,13,28,29,18,30,25,24,24,6,6,6,6,6,15,30,25,25,24,1,27,25,25,28,14,2240.txt
1,14,9,26,24,25,29,30,28,26,12,30,13,28,29,18,30,25,24,24,16,26,26,11,25,15,30,25,25,24,12,21,11,11,23,14,2241.txt
1,14,9,26,24,25,29,30,28,26,12,30,13,28,29,18,30,25,24,24,16,26,26,11,25,15,30,25,25,24,12,5,5,5,3,14,2244.txt
1,0,9,26,24,25,29,30,28,26,12,30,13,28,29,18,30,25,24,24,16,26,26,11,25,24,23,22,22,22,1,27,25,25,28,24,2245.txt
1,1,9,26,24,25,29,30,28,26,12,30,13,28,29,18,30,25,24,24,6,6,6,6,6,24,23,22,22,22,1,27,25,25,28,24,2247.txt
1,0,9,26,24,25,29,30,28,26,12,30,13,28,29,18,30,25,24,24,6,6,6,6,6,15,30,25,25,24,1,27,25,25,28,14,2249.txt
1,0,9,26,24,25,29,30,28,26,12,30,13,28,29,18,30,25,3,3,16,26,26,11,25,15,30,25,25,24,1,27,25,25,28,14,2252.txt
1,0,9,26,24,25,29,30,28,26,28,26,25,26,25,25,25,27,24,24,19,20,24,18,24,21,30,25,25,24,12,21,12,12,5,14,2255.txt
1,0,9,26,24,25,29,22,27,26,12,11,13,13,14,18,16,17,24,24,6,6,6,6,6,15,27,25,26,24,1,1,1,1,1,14,2257.txt
1,0,9,26,24,25,29,30,28,26,12,30,13,28,29,18,30,25,24,24,16,26,26,11,25,24,23,22,22,22,1,27,25,25,28,24,2258.txt
1,0,9,26,24,20,26,22,6,2,12,11,13,13,14,2,15,1,24,24,6,6,6,6,6,0,0,0,0,0,1,1,1,1,1,12,2260.txt
1,1,9,26,24,25,29,30,28,26,28,26,25,26,25,25,25,27,24,24,6,6,6,6,6,21,30,27,25,26,1,27,25,25,28,14,2263.txt
1,0,9,26,24,25,29,30,28,26,12,30,13,28,29,18,30,3,24,24,6,6,6,6,6,15,30,27,25,26,1,27,25,25,28,14,2265.txt
1,1,9,26,24,25,29,30,28,26,12,30,13,28,29,18,30,25,24,24,16,26,26,11,25,15,6,6,6,7,1,27,25,25,28,5,2266.txt
1,0,9,26,24,25,29,30,28,26,12,30,13,28,29,18,30,25,24,24,6,6,6,6,6,15,12,12,12,13,1,27,25,25,28,14,2268.txt
1,0,9,26,24,25,29,30,28,26,12,30,13,28,29,18,30,25,24,24,16,26,26,11,25,24,23,22,22,22,1,27,25,25,28,24,2271.txt
1,1,9,26,24,25,29,30,28,26,12,30,13,28,29,18,30,25,24,24,16,26,26,11,25,15,30,25,25,24,1,27,25,25,28,14,2273.txt
1,1,9,26,24,25,29,30,28,26,12,30,13,28,29,18,30,25,24,24,16,26,26,11,25,15,30,25,25,24,1,27,25,25,28,14,2275.txt
1,1,9,26,24,25,29,30,28,26,12,30,13,28,29,18,30,25,24,24,6,6,6,6,6,15,27,27,26,26,1,1,1,1,1,14,2276.txt
1,12,9,26,24,25,29,30,28,26,12,30,13,28,29,18,30,25,24,24,16,26,26,11,25,15,27,25,26,24,1,27,25,25,28,14,2278.txt
1,0,9,26,24,25,29,30,28,26,12,30,13,28,29,18,30,25,3,3,16,26,26,11,25,15,30,25,25,24,1,27,25,25,28,14,2280.txt
1,12,9,26,24,25,29,30,28,26,12,30,13,28,29,18,30,25,24,24,16,27,27,11,16,15,27,25,26,24,12,5,5,5,3,14,2283.txt
1,0,9,26,24,25,29,30,28,26,12,30,13,28,29,18,30,25,3,3,16,26,26,11,25,15,30,27,25,26,1,27,25,25,28,14,2284.txt
1,0,9,26,24,25,29,30,28,26,12,30,13,28,29,18,30,25,24,24,6,6,6,6,6,15,30,27,25,26,1,27,25,25,28,14,2286.txt
1,14,9,26,24,25,29,30,28,26,12,30,13,28,29,18,30,25,24,24,16,26,26,11,25,15,30,25,25,24,12,21,11,11,20,14,2288.txt
1,24,15,26,24,25,6,9,10,26,12,30,13,28,29,18,30,13,24,24,8,9,9,8,9,15,29,28,28,27,1,27,25,25,28,14,2291.txt
1,12,9,26,24,25,29,30,28,26,12,30,13,28,29,18,30,25,24,24,16,26,26,11,25,15,30,27,25,26,12,5,5,5,20,14,2292.txt
1,1,9,26,24,20,26,22,6,2,12,11,13,13,14,2,15,1,24,24,3,3,3,3,3,0,0,0,0,0,1,1,1,1,1,12,2294.txt
1,14,9,26,24,25,29,30,28,26,12,30,13,28,29,18,30,25,3,3,16,16,16,11,16,15,7,7,7,9,20,20,4,4,3,6,2297.txt
1,1,9,26,24,25,29,30,28,26,12,30,13,28,29,18,30,25,24,24,16,26,26,11,25,24,23,22,22,22,1,27,25,25,28,24,2300.txt
1,0,9,26,24,25,29,30,28,26,12,30,13,28,29,18,30,25,24,24,16,26,26,11,25,15,30,28,25,27,1,27,25,25,28,14,2302.txt
1,1,9,26,24,25,29,30,28,26,12,30,13,28,29,18,30,25,24,24,6,6,6,6,6,15,30,25,25,24,1,27,25,25,28,14,2304.txt
1,0,15,26,24,25,4,4,5,26,12,30,13,28,29,18,30,3,24,24,6,6,6,6,6,15,30,25,25,24,1,27,25,25,28,14,2306.txt
1,1,9,26,24,25,29,30,28,26,12,30,13,28,29,18,30,25,24,24,6,6,6,6,6,15,30,25,25,24,1,27,25,25,28,14,2308.txt
1,0,9,26,24,25,29,30,28,26,12,30,13,28,29,18,30,25,24,24,6,6,6,6,6,15,27,25,26,24,1,27,25,25,28,14,2310.txt
1,0,9,26,24,25,29,30,28,26,12,30,13,28,29,18,30,25,24,24,16,26,26,3,25,15,27,25,26,24,1,27,25,25,28,14,2312.txt
1,12,9,26,24,25,29,30,28,26,12,30,13,28,29,18,30,25,3,3,16,16,16,3,16,15,30,25,25,24,12,5,5,5,5,14,2313.txt
1,24,9,26,24,25,29,30,28,26,12,30,13,28,29,18,30,25,3,3,16,26,26,11,25,15,27,27,26,26,20,20,4,4,3,14,2315.txt
28,5,15,26,24,11,6,9,10,12,3,19,16,20,18,7,30,22,9,9,1,1,1,1,1,24,23,22,22,22,1,27,25,25,28,24,2318.txt
1,0,9,26,24,25,29,30,28,26,12,30,13,28,29,18,30,25,3,3,16,26,26,11,25,15,27,25,26,24,12,5,5,5,3,14,2319.txt
28,0,9,26,24,25,6,9,10,26,12,30,13,28,29,18,30,3,0,0,6,6,6,6,6,15,27,27,26,26,1,27,25,25,28,14,2322.txt
1,25,9,26,24,25,29,30,28,26,12,30,13,28,29,18,30,25,24,24,16,26,26,11,25,15,30,25,25,24,19,21,12,12,23,14,2324.txt
28,1,16,26,24,11,6,9,10,26,3,29,3,3,3,18,30,4,9,9,1,1,1,1,1,5,5,5,5,4,1,27,25,25,28,24,2325.txt
1,1,9,26,24,25,29,30,28,26,28,26,25,26,25,25,25,27,24,24,6,6,6,6,6,21,27,25,26,24,1,27,25,25,28,14,2328.txt
1,0,9,26,24,25,29,30,28,26,12,30,13,28,29,18,30,25,24,24,6,6,6,6,6,15,30,28,25,27,1,27,25,25,28,14,2330.txt
1,1,9,26,24,25,29,30,28,26,12,30,13,28,29,18,30,25,3,3,16,26,26,11,25,15,27,12,26,13,12,5,5,5,5,14,2332.txt
1,1,9,26,24,25,29,30,28,26,28,26,25,26,25,25,25,27,24,24,19,20,24,18,24,21,30,25,25,24,1,27,25,25,28,14,2333.txt
1,1,9,26,24,25,29,30,28,26,12,30,13,28,29,18,30,25,24,24,6,6,6,6,6,15,27,25,26,24,1,27,25,25,28,14,2337.txt
1,1,9,26,24,25,29,30,28,26,12,30,13,28,29,18,30,25,24,24,6,6,6,6,6,15,30,27,25,26,1,27,25,25,28,14,2339.txt
1,0,9,26,24,25,29,30,28,26,12,30,13,28,29,18,30,25,24,24,6,6,6,6,6,15,30,25,25,24,1,27,25,25,28,14,2341.txt
1,0,9,26,24,25,29,30,28,26,12,30,13,28,29,18,30,25,24,24,6,6,6,6,6,15,30,27,25,26,1,27,25,25,28,14,2343.txt
1,12,9,26,24,25,29,30,28,26,12,30,13,28,29,18,30,25,24,24,16,26,26,3,25,15,27,27,26,26,1,27,25,25,28,14,2344.txt
1,0,9,26,24,25,29,30,28,26,12,30,13,28,29,18,30,25,24,24,16,26,26,3,25,15,30,25,25,24,12,5,5,5,3,14,2346.txt
1,1,9,26,24,25,29,30,28,26,12,30,13,28,29,18,30,25,24,24,6,6,6,6,6,15,30,28,25,27,1,27,25,25,28,14,2348.txt
1,1,9,26,24,25,29,30,28,26,12,30,13,28,29,18,30,25,24,24,16,26,26,11,25,24,23,22,22,22,1,27,25,25,28,24,2352.txt
1,0,9,26,24,25,29,30,28,26,12,30,13,28,29,18,30,25,24,24,16,16,16,11,26,15,6,6,6,6,4,4,20,20,23,5,2354.txt
1,1,9,26,24,25,29,30,28,13,12,30,13,28,29,8,30,25,24,24,16,26,26,11,25,24,23,22,22,22,1,27,25,25,28,24,2355.txt
1,0,9,26,24,26,26,22,6,2,12,11,13,13,14,2,15,1,24,24,6,6,6,6,6,0,0,0,0,0,1,1,1,1,1,12,2358.txt
1,12,9,26,24,25,29,30,28,26,12,30,13,28,29,18,30,25,24,24,16,26,26,11,25,15,27,25,26,24,12,5,5,5,23,14,2360.txt
1,0,9,26,24,25,29,30,28,26,12,30,13,28,29,18,30,25,3,3,16,26,26,11,25,5,5,5,5,4,1,27,25,25,28,24,2361.txt
1,0,9,26,24,25,29,30,28,26,12,30,13,28,29,18,30,25,24,24,16,26,26,11,25,15,30,25,25,24,12,5,5,5,5,14,2364.txt
1,24,9,26,24,25,29,30,28,26,12,30,13,28,29,18,30,25,3,3,16,26,26,11,25,15,30,25,25,24,12,5,5,5,3,14,2365.txt
1,0,9,26,24,25,29,30,28,26,12,30,13,28,29,18,30,25,24,24,6,6,6,6,6,15,30,27,25,26,1,27,25,25,28,14,2370.txt
1,0,9,26,24,25,29,22,27,26,12,11,13,13,14,18,16,17,24,24,16,16,16,3,16,15,27,12,26,13,1,1,1,1,1,14,2371.txt
1,0,9,26,24,25,29,30,28,26,12,30,13,28,29,18,30,25,24,24,16,26,26,11,25,15,30,27,25,26,1,27,25,25,28,14,2375.txt
1,30,9,26,24,25,6,9,10,26,12,30,13,28,29,18,30,25,3,3,29,18,20,28,30,15,30,25,25,24,12,5,5,5,23,14,2376.txt
1,0,9,26,24,25,29,30,28,26,12,30,13,28,29,18,30,25,24,24,6,6,6,6,6,15,28,25,27,24,1,27,25,25,28,14,2378.txt
1,1,9,26,24,25,29,30,28,26,12,30,13,28,29,18,30,25,24,24,6,6,6,6,6,15,30,27,25,26,1,27,25,25,28,14,2380.txt
1,12,9,26,24,25,29,30,28,26,12,30,13,28,29,18,30,25,3,3,16,26,26,11,25,15,27,27,26,26,12,5,5,5,3,14,2382.txt
1,24,9,26,24,25,29,30,28,26,12,30,13,28,29,18,30,25,24,24,16,26,26,11,25,15,6,6,6,7,23,5,5,5,26,5,2384.txt
1,0,9,26,24,25,29,30,28,26,12,30,13,28,29,18,30,3,24,24,6,6,6,6,6,24,23,22,22,22,1,27,25,25,28,24,2385.txt
26,0,9,26,24,25,29,30,28,26,12,30,13,28,29,18,30,25,24,24,16,26,26,11,25,24,23,22,22,22,1,27,25,25,28,24,2387.txt
1,1,9,26,24,25,29,30,28,26,12,30,13,28,29,18,30,25,24,24,6,6,6,6,6,15,7,7,7,7,1,27,25,25,28,6,2390.txt
1,0,9,26,24,25,29,22,27,26,12,11,13,29,30,18,16,26,24,24,6,6,6,6,6,15,27,25,26,24,1,27,25,25,28,14,2392.txt
1,1,9,26,24,25,29,30,28,26,12,30,13,28,29,18,30,25,24,24,6,6,6,6,6,15,30,25,25,24,1,27,25,25,28,14,2394.txt
1,1,9,26,24,25,29,30,28,26,12,30,13,28,29,18,30,25,24,24,6,6,6,6,6,15,27,25,26,24,1,27,25,25,28,14,2395.txt
1,0,9,26,24,25,29,30,28,26,12,30,13,28,29,18,30,25,24,24,6,6,6,6,6,15,30,27,25,26,1,27,25,25,28,14,2400.txt
1,0,9,26,24,25,29,30,28,26,12,30,13,28,29,18,30,25,24,24,6,6,6,6,6,15,30,25,25,24,1,27,25,25,28,14,2402.txt
1,0,9,26,24,25,29,30,28,26,12,30,13,28,29,18,30,25,24,24,16,16,16,3,16,15,30,25,25,24,1,27,25,25,28,14,2404.txt
28,30,9,26,24,25,11,4,11,26,12,30,13,28,29,18,30,3,9,9,6,6,6,6,6,15,30,26,25,25,1,27,25,25,28,14,2405.txt
1,0,9,26,24,25,29,30,28,26,12,30,13,28,29,18,30,25,24,24,16,26,26,11,25,15,6,6,6,9,1,27,25,25,28,5,2408.txt
1,25,24,16,15,5,29,30,28,28,23,14,8,0,8,5,30,25,24,24,6,6,6,6,6,15,30,25,25,24,3,3,3,3,4,14,2410.txt
1,1,9,26,24,25,29,30,28,26,12,30,13,28,29,18,30,25,24,24,16,26,26,11,25,12,30,25,25,24,1,27,25,25,28,14,2411.txt
1,1,9,26,24,25,29,30,28,26,12,30,13,28,29,18,30,25,22,14,16,26,26,11,25,15,6,6,6,9,1,27,25,25,28,5,2413.txt
1,1,9,26,24,25,29,30,28,26,12,30,13,28,29,18,30,25,24,24,16,26,26,11,25,15,30,25,25,24,1,27,25,25,28,14,2416.txt
1,0,9,26,24,25,29,30,28,26,12,30,13,28,29,18,30,25,24,24,6,6,6,6,6,15,30,25,25,24,1,27,25,25,28,14,2417.txt
1,1,9,26,24,25,29,30,28,26,12,30,13,28,29,18,30,25,24,24,6,6,6,6,6,24,23,22,22,22,1,27,25,25,28,24,2419.txt
1,0,9,26,24,25,29,30,28,26,12,30,13,28,29,18,30,25,24,24,6,6,6,6,6,15,30,25,25,24,1,27,25,25,28,14,2422.txt
1,1,9,26,24,25,29,30,28,26,12,30,13,28,29,18,30,25,24,24,16,26,26,3,25,15,27,27,26,26,12,5,5,5,3,14,2425.txt
1,1,9,26,24,25,29,30,28,26,12,30,13,28,29,18,30,25,24,24,16,26,26,11,25,15,30,27,25,26,1,27,25,25,28,14,2426.txt
1,12,9,26,24,25,29,30,28,26,12,30,13,28,29,18,30,25,24,24,16,16,16,11,16,15,27,12,26,13,1,27,25,25,28,14,2428.txt
28,30,9,26,24,25,6,9,10,26,12,30,13,28,29,18,30,25,9,9,1,1,1,1,1,15,11,11,11,7,12,5,5,5,3,11,2430.txt
1,0,9,16,17,6,1,1,8,6,15,27,4,17,0,18,0,0,24,24,6,6,6,6,6,15,12,25,12,24,2,2,2,2,2,14,2432.txt
1,24,9,26,24,25,29,30,28,26,28,26,25,26,25,25,25,27,3,3,19,20,24,18,24,21,27,25,26,24,12,5,5,5,5,14,2435.txt
1,0,9,26,24,25,29,30,28,26,12,30,13,28,29,18,30,25,3,3,16,26,26,11,25,15,27,26,26,25,12,5,5,5,23,14,2437.txt
1,0,9,26,24,25,29,30,28,26,12,30,13,28,29,18,30,25,24,24,16,16,16,11,16,15,27,27,26,26,1,27,25,25,28,14,2440.txt
1,0,9,26,24,25,29,30,28,26,12,30,13,28,29,18,30,25,24,24,16,26,26,11,25,15,30,27,25,26,1,27,25,25,28,14,2442.txt
1,0,9,26,24,25,29,30,28,26,12,30,13,28,29,18,30,25,24,24,16,26,26,11,25,15,30,25,25,24,1,27,25,25,28,14,2444.txt
1,0,3,24,6,1,6,9,10,17,24,16,15,24,10,11,9,25,0,0,1,1,1,1,1,15,30,25,25,24,1,27,25,25,28,14,2445.txt
1,14,9,26,24,25,29,30,28,26,12,30,13,28,29,18,30,25,24,24,16,26,26,11,25,15,30,25,25,24,23,21,12,12,26,14,2447.txt
1,0,9,26,24,25,29,30,28,26,12,30,13,28,29,18,30,25,24,24,6,6,6,6,6,15,30,25,25,24,1,27,25,25,28,14,2449.txt
1,1,9,16,15,5,29,30,28,28,23,14,4,17,7,18,30,25,24,24,6,6,6,6,6,15,30,25,25,24,2,2,2,2,2,14,2451.txt
1,1,9,26,24,25,29,30,28,26,12,30,13,28,29,18,30,25,24,24,6,6,6,6,6,15,11,11,11,7,1,27,25,25,28,11,2453.txt
1,1,3,1,9,1,29,30,28,15,20,21,15,18,10,11,9,25,24,24,16,26,26,11,25,15,30,25,25,24,1,27,25,25,28,14,2455.txt
1,0,9,26,24,25,29,30,28,26,12,30,13,28,29,18,30,25,24,24,6,6,6,6,6,15,30,27,25,26,1,27,25,25,28,14,2457.txt
1,1,9,26,24,25,29,30,28,26,12,30,13,28,29,18,30,25,24,24,16,16,16,11,16,15,27,12,26,13,1,1,1,1,1,14,2459.txt
1,1,9,26,24,25,29,30,28,26,12,30,13,28,29,18,30,25,24,24,6,6,6,6,6,15,30,25,25,24,1,27,25,25,28,14,2462.txt
1,1,9,26,24,25,29,30,28,26,12,30,13,28,29,18,30,25,24,24,16,26,26,11,25,15,30,27,25,26,1,27,25,25,28,14,2464.txt
1,0,9,26,24,25,29,30,28,26,12,30,13,28,29,18,30,25,24,24,6,6,6,6,6,15,27,27,26,26,1,27,25,25,28,14,2466.txt
1,0,9,26,24,25,29,30,28,26,12,30,13,28,29,18,30,25,3,3,16,26,26,11,25,15,30,25,25,24,12,5,5,5,3,14,2468.txt
1,12,9,26,24,25,29,30,28,26,12,30,13,28,29,18,30,25,24,24,16,26,26,11,25,15,30,25,25,24,12,21,11,11,26,14,2470.txt
1,1,9,26,24,25,29,30,28,26,12,30,13,28,29,18,30,25,24,24,16,26,26,11,25,24,23,22,22,22,1,27,25,25,28,24,2471.txt
1,1,9,26,24,25,0,0,0,26,12,30,13,28,29,18,30,3,24,24,6,6,6,6,6,15,30,25,25,24,1,27,25,25,28,14,2473.txt
1,1,9,26,24,25,29,30,28,26,12,30,13,28,29,18,30,25,24,24,6,6,6,6,6,15,30,25,25,24,1,27,25,25,28,14,2475.txt
1,0,9,26,24,25,29,30,28,26,12,30,13,28,29,18,30,25,24,24,16,26,26,11,25,15,27,25,26,24,19,21,21,21,23,14,2477.txt
1,1,9,26,24,25,29,30,28,26,12,30,13,28,29,18,30,25,24,24,6,6,6,6,6,15,30,25,25,24,1,27,25,25,28,14,2480.txt
1,1,9,26,24,25,29,30,28,26,12,30,13,28,29,18,30,25,24,24,6,6,6,6,6,15,30,25,25,24,2,2,2,2,2,14,2482.txt
1,1,9,26,24,25,22,30,28,26,12,30,13,28,29,18,30,25,24,24,16,16,16,11,16,15,27,27,26,26,1,1,1,1,1,14,2483.txt
1,0,9,26,24,25,29,30,28,26,12,30,13,28,29,18,30,25,24,24,16,26,26,11,25,7,6,6,6,9,1,27,25,25,28,5,2485.txt
1,14,9,26,24,25,29,30,28,26,12,30,13,28,29,18,30,25,24,24,16,26,26,11,25,15,11,11,11,7,12,5,5,5,23,11,2488.txt
1,1,9,26,24,25,29,30,28,26,12,30,13,28,29,18,30,25,24,24,16,26,26,11,25,15,30,25,25,24,1,27,25,25,28,14,2491.txt
1,0,9,26,24,25,29,30,28,26,12,30,13,28,29,18,30,25,24,24,16,26,26,11,25,24,23,22,22,22,1,27,25,25,28,24,2496.txt
1,0,9,26,24,25,29,30,28,26,12,30,13,28,29,18,30,25,24,24,6,6,6,6,6,15,30,25,25,24,1,27,25,25,28,14,2506.txt
1,1,9,26,24,25,29,30,28,26,22,22,21,23,22,27,30,25,24,24,16,26,26,11,25,15,6,6,6,7,1,27,25,25,28,5,2511.txt
1,1,9,26,24,25,29,30,28,26,12,30,13,28,29,18,30,25,24,24,6,6,6,6,6,24,23,22,22,22,1,27,25,25,28,24,2517.txt
1,0,9,26,24,25,29,30,28,12,12,30,13,28,29,8,30,25,3,3,16,26,26,11,25,24,23,22,22,22,12,5,5,5,3,24,2518.txt
1,0,9,26,24,25,29,30,28,26,12,30,13,28,29,18,30,25,24,24,6,6,6,6,6,15,30,25,25,24,1,27,25,25,28,14,2521.txt
1,14,9,26,24,25,29,30,28,26,12,30,13,28,29,18,30,3,24,24,6,6,6,6,6,24,23,22,22,22,1,27,25,25,28,24,2522.txt
1,0,9,26,24,25,29,30,28,26,12,30,13,28,29,18,30,25,3,3,16,26,26,11,25,15,30,25,25,24,12,5,5,5,3,14,2526.txt
1,0,9,26,24,25,29,30,28,26,12,30,13,28,29,18,30,25,24,24,16,26,26,11,25,15,30,25,25,24,1,27,25,25,28,14,2528.txt
1,0,9,26,24,25,29,30,28,26,12,30,13,28,29,18,30,25,3,3,16,26,26,11,25,2,2,2,2,2,4,4,4,4,3,2,2531.txt
28,0,15,26,24,11,11,11,11,12,3,19,16,20,18,7,30,13,9,9,8,9,9,8,9,24,23,22,22,22,1,27,25,25,28,24,2533.txt
1,1,9,26,24,25,29,30,28,26,12,30,13,28,29,18,30,25,24,24,6,6,6,6,6,15,30,28,25,27,1,1,1,1,1,14,2536.txt
1,0,9,26,24,25,29,30,28,26,12,30,13,28,29,18,30,25,3,3,16,26,26,11,25,15,30,25,25,24,1,27,25,25,28,14,2538.txt
1,0,9,26,24,25,29,30,28,26,28,26,25,26,25,25,25,27,24,24,19,20,24,12,24,21,27,25,26,24,1,27,25,25,28,14,2541.txt
1,1,9,26,24,25,29,30,28,26,12,30,13,28,29,18,30,25,24,24,6,6,6,6,6,15,27,25,26,24,1,1,1,1,1,14,2543.txt
1,1,9,26,24,25,29,30,28,26,12,30,13,28,29,18,30,25,24,24,6,6,6,6,6,24,23,22,22,22,1,27,25,25,28,24,2544.txt
28,30,15,26,24,11,6,9,10,13,13,12,14,14,15,8,30,22,9,9,29,17,17,28,17,5,5,5,5,4,1,27,25,25,28,4,2548.txt
1,1,9,26,24,25,29,30,28,22,12,30,13,28,29,18,30,30,24,24,6,6,6,6,6,24,23,22,22,22,1,27,25,25,28,24,2550.txt
1,14,9,26,24,25,29,30,28,26,12,30,13,28,29,18,30,8,24,24,16,26,26,11,25,24,23,22,22,22,1,27,25,25,28,24,2552.txt
1,14,9,26,24,25,29,30,28,26,12,30,13,28,29,18,30,25,24,24,16,26,26,11,25,24,23,22,22,22,1,27,25,25,28,24,2553.txt
1,30,9,26,24,25,6,9,10,26,12,30,13,28,29,18,30,25,24,24,12,17,17,14,17,15,11,11,11,7,1,27,25,25,28,11,2556.txt
1,0,9,26,24,25,29,30,28,26,12,30,13,28,29,18,30,25,24,24,6,6,6,6,6,15,12,25,12,24,1,27,25,25,28,14,2558.txt
1,0,15,26,24,25,0,0,0,26,12,30,13,28,29,18,30,3,9,9,6,6,6,6,6,24,23,22,22,22,1,27,25,25,28,24,2560.txt
1,1,9,26,24,25,29,30,28,26,12,30,13,28,29,18,30,25,24,24,6,6,6,6,6,24,23,22,22,22,1,27,25,25,28,24,2562.txt
1,0,9,26,24,25,29,30,28,26,12,30,13,28,29,18,30,25,24,24,6,6,6,6,6,15,12,25,12,24,1,1,1,1,1,14,2564.txt
1,0,9,26,24,25,29,30,28,26,12,30,13,28,29,18,30,25,24,24,25,28,29,30,6,24,23,22,22,22,1,27,25,25,28,24,2566.txt
1,14,9,26,24,25,29,30,28,26,12,30,13,28,29,18,30,25,24,24,16,26,26,11,25,15,30,25,25,24,19,21,21,21,23,14,2569.txt
1,14,9,26,24,25,29,30,28,26,12,30,13,28,29,18,30,25,24,24,16,26,26,11,25,15,30,25,25,24,12,5,5,5,3,14,2570.txt
1,0,9,26,24,25,29,30,28,26,12,30,13,28,29,18,30,25,24,24,16,26,26,11,25,15,30,25,25,24,12,5,5,5,3,14,2572.txt
1,0,9,26,24,25,29,30,28,26,12,30,13,28,29,18,30,25,24,24,6,6,6,6,6,24,23,22,22,22,1,27,25,25,28,24,2574.txt
