0,1,2,3,4,5,6,7,8,9,10,11,12,13,14,15,16,17,18,19,20,21,22,23,24,25,26,27,28,29,30,31,32,33,34,35,36,37,38,39,40,41,42,43,44,45,46,47,48,49,50,51,52,53,54,55,56,filename
1,3,1,1,8,0,1,1,4,0,1,7,10,5,5,5,2,3,2,2,2,2,2,2,3,20,11,6,6,12,9,6,7,12,12,6,16,6,9,6,6,6,10,7,4,4,4,4,12,4,4,2,2,2,2,2,0,2.txt
1,3,1,1,8,0,6,16,4,0,1,7,12,4,3,3,2,2,2,2,2,2,2,2,3,20,7,6,12,9,11,8,9,5,10,1,1,1,1,6,11,5,7,9,7,5,5,1,1,2,2,1,1,2,1,1,1,5.txt
5,1,4,3,8,0,1,1,4,2,1,1,10,3,4,3,5,3,2,4,2,2,3,2,4,4,19,11,8,8,8,9,16,16,9,12,9,14,2,8,8,1,1,1,1,1,1,1,1,7,2,3,3,0,0,0,2,9.txt
1,3,1,1,8,0,6,1,4,0,1,7,5,5,3,5,2,3,2,2,2,4,2,2,3,6,3,2,3,3,3,3,2,2,13,3,1,1,1,3,3,1,1,1,1,1,1,1,1,3,2,2,2,2,2,2,0,12.txt
1,1,1,1,8,0,1,1,4,0,1,7,5,3,5,3,2,3,2,2,2,2,2,2,3,20,7,6,10,9,11,8,9,12,12,6,16,6,9,6,6,8,7,7,10,5,6,6,11,4,4,2,2,2,2,2,1,14.txt
1,3,1,1,8,0,6,3,6,0,1,7,4,4,3,5,2,5,2,2,2,2,2,2,3,20,11,10,6,6,11,11,7,6,10,6,7,13,6,6,11,6,7,6,7,7,4,5,7,4,4,1,1,2,2,2,0,16.txt
1,3,1,1,8,0,1,1,4,0,1,7,10,3,5,5,2,3,2,2,2,3,2,2,3,20,13,10,6,6,11,11,2,6,10,10,17,6,1,6,6,1,1,1,1,1,1,1,1,4,2,2,2,2,2,2,0,17.txt
1,3,1,1,8,0,1,1,4,0,1,7,4,4,5,3,2,3,2,2,2,2,2,2,3,20,11,10,6,6,11,6,12,6,10,6,8,7,7,6,6,7,6,9,6,6,6,5,1,4,2,1,1,2,2,2,0,21.txt
1,3,1,1,8,0,1,11,4,0,1,7,5,5,5,3,2,3,2,2,2,2,2,2,3,20,13,10,6,14,11,11,14,6,10,6,7,12,10,6,11,6,7,6,7,7,7,5,3,4,2,2,2,2,2,2,0,23.txt
1,1,1,1,4,0,1,1,4,0,1,7,5,4,5,3,2,3,2,2,2,3,2,2,3,29,4,3,11,8,2,2,11,14,3,9,11,2,2,9,0,1,1,1,1,1,1,1,1,1,0,1,1,0,0,0,1,24.txt
1,1,1,1,8,0,7,1,4,0,1,7,10,3,5,3,2,3,2,2,2,2,2,2,3,4,4,3,8,8,2,2,3,20,3,9,10,2,2,9,0,2,8,8,8,8,8,0,9,1,1,0,0,0,0,0,1,26.txt
1,3,1,1,8,0,1,1,4,0,1,7,4,4,5,4,2,3,2,2,2,3,2,2,3,20,11,12,6,12,11,12,12,22,10,10,17,13,6,6,11,1,1,1,1,1,1,1,1,4,2,2,1,2,2,2,0,28.txt
5,1,1,1,8,0,3,1,5,0,1,7,4,4,5,5,2,3,2,4,2,2,2,2,3,2,4,3,8,2,2,2,3,20,3,2,9,2,2,8,8,2,8,8,8,8,8,7,0,6,0,1,1,0,0,0,1,30.txt
1,3,1,1,8,0,6,1,4,0,1,7,5,5,3,4,2,6,2,2,2,2,2,2,3,26,10,9,5,5,13,5,2,11,6,5,6,5,5,5,5,5,5,5,5,5,5,6,5,2,4,2,2,2,2,1,1,32.txt
4,1,1,1,8,0,1,15,4,0,1,7,5,5,5,5,2,3,2,4,2,2,2,2,3,29,4,3,8,2,2,2,11,20,3,9,10,2,2,10,0,2,8,8,8,8,8,7,6,1,1,0,0,0,0,0,1,34.txt
1,3,1,1,8,0,1,26,4,0,1,7,4,5,5,5,2,3,2,2,2,2,2,2,3,20,13,10,6,6,11,11,12,6,10,10,7,1,1,1,1,6,1,2,1,1,1,1,1,4,2,2,2,2,2,2,0,36.txt
1,3,1,1,8,0,1,1,4,0,1,7,5,3,5,3,2,3,2,2,2,2,2,2,3,20,13,10,6,15,11,12,12,13,12,10,17,9,13,6,6,8,7,9,10,7,7,5,11,4,4,2,2,2,2,2,1,40.txt
1,1,1,1,10,0,6,1,4,0,1,7,4,5,5,5,2,3,2,2,2,2,2,2,3,20,7,6,6,9,9,8,9,12,12,6,2,3,3,4,4,4,4,4,4,4,4,4,6,4,2,2,2,2,2,2,0,41.txt
1,3,1,1,8,0,7,3,4,0,1,7,4,3,5,3,2,3,2,2,2,2,2,2,3,20,11,10,6,6,11,11,7,6,7,6,7,8,8,6,11,6,7,6,7,7,7,5,11,4,4,2,2,2,2,2,0,49.txt
1,1,1,1,8,0,1,1,4,0,1,7,5,3,5,3,2,3,2,2,2,2,2,2,3,29,4,3,8,8,2,2,3,20,3,9,10,2,2,9,0,2,8,8,8,8,8,7,9,1,1,0,0,0,0,0,0,53.txt
4,1,1,1,10,0,1,1,0,0,1,7,4,3,5,5,2,3,2,2,2,2,2,2,3,7,4,3,8,2,2,2,11,20,3,2,2,2,2,10,0,0,8,8,8,8,8,0,13,1,1,0,0,0,0,0,2,55.txt
1,1,1,1,26,0,3,11,5,0,1,7,4,4,5,3,2,3,2,2,2,2,2,2,3,29,4,3,11,2,2,2,3,20,3,9,10,2,2,9,0,2,8,12,0,0,11,0,9,1,0,1,1,0,1,1,1,57.txt
1,3,1,1,7,0,1,1,4,0,1,7,5,3,5,3,2,3,2,2,2,2,2,2,3,6,3,15,3,3,3,3,4,2,4,3,4,12,11,3,3,3,11,3,3,9,3,3,6,3,2,2,2,2,2,1,1,60.txt
5,1,1,1,8,0,1,1,4,15,1,7,4,5,5,3,2,3,2,4,2,2,2,2,3,18,4,3,8,2,2,2,3,20,3,9,9,2,2,8,0,2,8,8,8,8,8,0,13,6,1,0,0,0,0,1,1,61.txt
1,1,1,1,8,0,1,26,4,0,1,7,4,3,5,3,2,3,2,2,2,2,2,2,3,8,4,3,11,8,2,2,11,10,3,9,0,2,2,2,0,1,1,1,1,1,1,1,1,1,2,0,0,0,0,2,1,63.txt
1,1,1,1,10,0,6,1,6,0,1,7,4,4,5,5,2,3,2,2,2,2,2,2,3,29,4,1,1,8,2,2,3,20,3,9,10,2,2,8,0,2,8,8,8,8,8,1,3,1,0,1,1,0,0,1,1,65.txt
1,1,1,1,10,0,1,3,4,0,1,7,11,4,3,5,2,2,2,2,2,2,2,2,3,4,4,3,2,8,2,2,3,20,3,9,10,2,2,9,0,1,1,1,1,1,1,1,1,2,1,0,1,0,0,1,1,68.txt
1,1,1,1,8,0,1,15,4,0,1,7,4,3,5,3,2,3,2,2,2,2,2,2,3,8,4,3,8,8,2,2,3,8,3,9,11,2,2,9,1,1,1,8,8,8,1,1,1,1,2,0,0,0,0,2,0,71.txt
1,3,1,1,8,0,1,3,4,0,1,7,4,5,3,5,2,6,2,2,2,2,2,2,3,20,13,10,6,6,11,11,12,6,10,1,1,1,1,6,11,8,7,9,1,1,1,1,2,4,2,2,2,2,2,2,0,72.txt
1,3,1,1,10,0,3,1,5,0,1,7,10,4,3,4,2,3,2,2,2,2,2,2,3,20,11,10,6,6,6,11,12,6,7,6,7,8,8,6,6,6,7,6,7,7,7,5,11,0,0,1,1,2,2,2,0,76.txt
5,1,1,1,8,0,1,1,4,0,1,7,5,5,5,3,2,3,2,4,2,2,2,2,3,29,4,3,8,8,2,2,3,20,3,9,9,2,2,8,0,2,8,8,8,8,8,0,13,6,1,0,0,0,1,0,2,78.txt
1,3,1,1,8,0,1,1,4,0,1,7,5,5,5,4,2,3,2,2,2,2,2,2,3,20,11,10,6,6,11,11,12,6,15,6,7,6,9,6,11,7,6,6,6,7,6,5,3,4,2,2,2,2,1,2,0,81.txt
4,1,1,1,8,0,1,1,4,0,1,7,4,4,5,3,2,3,2,2,2,2,2,2,3,29,4,3,8,2,2,2,3,17,3,2,10,2,2,10,0,2,8,8,8,8,8,0,13,1,1,1,1,0,0,0,2,84.txt
1,3,1,1,8,0,1,1,4,0,1,7,4,4,5,3,2,3,2,2,2,2,2,2,3,20,11,10,6,6,11,11,7,23,7,6,7,9,6,6,6,8,7,9,7,7,7,5,11,4,3,1,1,2,2,2,0,86.txt
5,1,1,1,8,0,1,1,4,13,2,2,10,1,2,2,0,0,0,0,0,0,0,0,0,29,0,3,8,2,2,2,3,20,3,2,9,2,2,8,8,2,8,8,8,8,9,0,13,7,0,1,1,0,0,0,1,89.txt
1,3,1,1,8,0,1,1,4,0,1,7,4,3,5,3,2,3,2,2,2,2,2,2,3,20,11,10,6,6,6,11,7,6,7,6,7,9,13,6,6,6,10,6,7,7,7,5,11,4,4,2,2,2,2,2,0,90.txt
1,3,1,1,7,0,1,1,4,0,1,7,4,4,5,3,2,3,2,2,2,2,2,2,3,6,3,2,3,3,3,3,4,2,4,3,4,11,11,3,3,10,11,3,9,9,3,3,3,0,0,1,1,2,2,2,0,92.txt
1,1,1,1,10,0,1,1,4,0,1,7,5,3,5,4,2,3,2,2,2,2,2,2,3,4,4,3,2,2,2,2,3,15,3,9,12,2,2,2,0,2,0,0,0,0,11,0,14,1,1,0,0,0,0,1,1,95.txt
1,3,1,1,8,0,1,1,4,0,1,7,4,4,5,3,2,3,2,2,2,3,2,2,3,20,13,10,6,12,9,12,12,12,10,10,1,1,1,1,1,6,1,1,1,1,1,1,1,0,0,2,1,2,1,2,0,97.txt
1,3,1,1,7,0,1,1,4,0,1,7,5,3,5,3,2,3,2,2,2,2,2,2,3,20,11,10,6,14,6,11,7,6,7,6,7,6,13,6,6,8,10,9,7,7,4,5,12,4,4,2,2,2,2,2,0,98.txt
1,3,1,1,8,0,1,1,4,0,1,7,4,5,5,3,2,3,2,2,2,2,2,2,3,20,11,10,6,14,6,11,12,6,15,6,7,7,7,6,6,7,7,9,7,7,1,5,2,4,0,2,2,2,2,2,0,100.txt
1,3,1,1,8,0,1,1,4,0,1,7,5,3,5,3,2,3,2,2,2,2,2,2,3,20,7,6,6,12,9,6,14,12,12,6,16,6,9,7,7,7,6,7,6,6,6,6,2,4,4,2,2,2,2,2,0,102.txt
1,3,1,1,8,0,1,1,4,0,1,7,5,3,5,3,2,3,2,2,2,2,2,2,3,20,11,10,6,12,11,6,14,22,12,6,16,6,7,6,7,7,7,7,6,6,6,5,12,4,4,2,2,2,1,2,0,105.txt
1,3,1,1,8,0,7,1,4,0,1,7,10,3,5,3,2,3,2,2,2,2,2,2,3,20,11,10,6,6,11,6,7,6,7,6,17,10,10,6,6,7,7,6,10,6,6,5,11,4,3,2,2,2,2,2,0,108.txt
1,3,1,1,5,0,1,1,4,0,1,7,10,3,3,3,2,3,2,2,2,2,2,2,3,20,11,10,10,14,11,11,14,13,10,10,7,8,8,6,6,6,7,6,7,7,7,5,4,4,4,2,1,2,2,2,1,110.txt
1,3,1,1,8,0,1,15,4,0,1,7,4,4,5,3,2,3,2,2,2,2,2,2,3,6,15,14,9,3,10,3,4,2,4,3,15,4,4,11,3,9,9,11,3,3,3,9,10,3,3,1,1,2,2,1,1,112.txt
1,3,1,1,8,0,3,1,5,0,1,7,4,4,5,3,2,3,2,2,2,2,2,2,3,20,7,6,6,9,9,7,8,7,8,7,8,3,3,4,4,4,4,4,4,4,4,4,3,0,0,1,1,2,1,2,0,114.txt
1,1,1,1,8,0,1,8,4,0,1,7,5,3,5,3,2,3,2,2,2,2,2,2,3,1,4,3,8,2,2,2,3,18,3,9,13,2,2,9,0,2,8,8,8,8,8,0,9,1,1,0,0,1,1,0,0,116.txt
1,3,1,1,8,0,1,1,4,0,1,7,4,4,5,5,2,3,2,2,2,0,0,0,0,20,0,10,6,14,11,6,7,13,15,10,17,7,7,6,6,7,6,9,10,6,6,5,3,4,0,1,1,2,2,2,1,118.txt
1,3,1,1,3,0,1,3,4,0,1,7,5,4,3,4,2,5,2,2,2,2,2,2,3,20,9,8,12,9,11,8,9,3,10,6,7,13,9,6,11,5,7,9,6,6,5,6,11,2,4,1,1,2,2,1,1,121.txt
5,1,1,1,7,0,1,1,4,0,1,7,5,3,5,3,2,3,2,4,0,0,0,0,0,4,0,3,8,8,2,2,3,20,3,2,9,2,2,8,8,2,1,1,1,1,1,1,1,5,2,0,0,0,0,0,2,123.txt
1,3,1,1,8,0,1,1,4,0,1,7,5,5,5,3,2,3,2,2,2,2,2,2,3,20,11,10,6,6,11,12,12,22,10,10,17,6,9,6,6,6,6,6,6,2,2,1,3,4,2,2,2,2,2,2,0,124.txt
1,3,1,1,8,0,1,18,4,0,1,7,4,3,5,3,2,3,2,2,2,2,2,2,3,6,15,14,9,3,3,10,4,2,4,3,15,10,10,3,10,9,9,11,3,3,12,3,10,3,3,2,2,2,2,2,0,126.txt
1,3,1,1,8,0,1,1,4,0,1,7,5,5,5,3,2,3,2,2,2,2,2,2,3,20,11,10,6,6,11,11,12,6,15,10,7,6,9,6,6,6,7,6,10,7,6,1,1,4,2,2,2,2,2,2,0,128.txt
1,3,1,1,8,0,1,1,4,0,1,7,4,4,5,3,2,3,2,2,2,2,2,2,3,20,11,10,6,14,11,12,12,23,10,10,7,12,11,6,6,8,7,9,10,1,1,5,1,0,0,1,1,2,2,2,0,130.txt
1,3,1,1,16,0,1,1,0,0,1,7,4,4,5,3,2,3,2,2,2,2,2,2,3,6,3,2,3,3,3,3,4,2,4,3,4,4,10,3,3,1,1,3,1,1,1,1,1,0,0,1,1,2,1,2,0,132.txt
1,1,1,1,8,0,1,1,4,0,1,7,10,4,5,3,2,3,2,2,2,2,2,2,3,10,4,3,8,8,2,2,11,20,3,9,10,2,2,9,0,2,8,10,0,8,11,0,9,1,1,0,1,0,0,0,1,135.txt
1,3,1,1,7,0,8,1,10,0,1,7,4,4,3,4,2,3,2,2,2,2,2,2,3,20,11,10,6,6,6,11,7,6,7,6,7,6,6,6,6,6,10,6,7,7,7,5,11,0,0,1,1,2,2,2,0,137.txt
1,3,1,1,8,0,1,1,4,0,1,7,4,4,5,3,2,3,2,2,2,2,2,2,3,20,11,10,10,15,11,6,14,13,7,6,17,10,10,6,6,8,7,9,10,7,5,6,12,4,4,1,1,2,2,1,1,141.txt
1,3,1,1,8,0,1,1,4,0,1,7,4,3,5,3,2,3,2,2,2,2,2,2,3,20,11,10,6,15,11,6,14,12,12,6,8,7,1,6,6,7,6,9,6,6,6,6,11,4,4,2,2,2,1,2,1,144.txt
1,1,1,1,8,0,1,1,4,0,1,7,4,4,5,4,2,3,2,2,2,2,2,2,3,29,4,3,11,8,2,2,11,20,3,9,10,2,2,9,0,2,8,12,0,0,11,0,2,1,2,1,1,0,0,1,1,145.txt
1,3,1,1,8,0,1,3,4,0,1,7,4,4,5,3,2,3,2,2,2,2,2,2,3,6,3,2,3,3,3,10,4,2,4,3,4,11,8,3,3,3,11,3,9,9,3,3,7,3,3,1,1,2,2,2,0,147.txt
1,3,1,1,8,0,1,1,4,0,1,7,5,3,5,3,2,3,2,2,2,2,2,2,3,20,11,10,6,12,9,6,14,12,12,6,16,3,3,6,4,4,4,4,4,4,4,4,12,4,4,2,2,2,2,2,0,149.txt
1,1,1,1,8,0,1,1,4,0,1,0,5,1,2,2,0,0,0,0,0,0,0,0,0,8,0,3,8,8,2,2,11,14,3,2,11,2,2,9,0,1,1,10,0,8,1,1,1,1,2,0,0,0,0,2,1,151.txt
1,3,1,1,8,0,1,1,4,0,1,7,4,4,5,3,2,3,2,2,2,2,2,2,3,20,11,10,10,15,11,6,7,13,10,6,17,11,11,6,6,8,7,9,10,7,7,5,5,4,3,1,1,2,2,1,1,154.txt
1,3,1,1,8,0,7,1,4,0,1,7,5,3,5,3,2,3,2,2,2,2,2,2,3,20,11,10,6,6,11,11,7,6,10,6,7,6,9,6,6,7,7,6,10,6,6,5,5,4,2,2,2,2,2,2,0,156.txt
1,1,1,1,8,0,6,1,4,0,1,7,4,4,5,3,2,3,2,2,2,2,2,2,3,19,4,3,8,8,2,2,3,20,3,2,10,2,2,10,0,2,8,8,8,8,8,7,0,1,1,1,1,0,0,0,1,158.txt
1,3,1,1,8,0,1,1,4,0,1,7,7,3,5,3,2,3,2,2,2,2,2,2,3,20,11,10,6,6,11,11,12,6,10,10,7,6,6,6,6,6,10,6,7,7,7,5,1,4,2,2,1,2,2,2,0,160.txt
1,3,1,1,8,0,1,1,4,0,1,7,4,4,5,5,2,3,2,2,2,2,2,2,3,20,11,10,6,12,11,6,7,22,12,6,16,6,9,6,6,6,7,6,4,4,4,4,11,4,4,1,1,2,2,2,0,161.txt
5,1,1,1,8,0,1,1,4,16,1,6,5,5,5,3,2,3,2,4,2,2,2,2,2,15,4,3,8,2,2,2,3,19,3,9,9,2,2,8,8,2,8,8,8,8,10,0,13,5,5,3,0,0,1,0,2,163.txt
1,3,1,1,8,0,1,1,4,0,1,7,4,4,5,3,2,3,2,2,2,2,2,2,3,6,3,2,3,3,3,3,4,2,4,3,15,4,12,3,3,10,3,11,3,3,12,9,10,3,3,1,1,2,2,2,1,165.txt
5,1,1,1,8,0,7,1,4,0,1,7,5,3,5,3,2,3,2,4,2,2,2,2,3,4,4,3,8,8,2,2,3,20,3,9,9,2,2,8,0,2,8,8,8,8,8,0,13,6,1,0,0,0,0,1,1,167.txt
4,1,1,1,8,0,1,1,4,0,1,7,5,3,5,3,2,3,2,4,2,2,2,2,3,10,4,3,8,2,2,2,3,17,3,9,10,2,2,8,0,2,8,8,8,8,8,0,13,1,1,0,0,0,0,1,1,169.txt
1,3,1,1,8,0,1,1,4,0,1,7,4,4,5,3,2,3,2,2,2,3,2,2,3,20,13,10,6,6,11,11,12,6,10,6,7,8,8,6,6,1,1,1,1,1,1,1,1,0,0,1,1,2,2,2,0,171.txt
4,1,1,1,10,0,1,1,4,0,1,7,4,4,5,3,2,3,2,4,2,2,2,2,3,0,4,3,8,2,2,2,3,20,3,9,9,2,2,8,0,2,8,8,8,8,8,0,13,1,1,1,1,0,0,0,1,173.txt
1,1,1,1,3,0,6,1,6,0,1,7,10,4,5,3,2,3,2,2,2,2,2,2,3,29,4,3,8,8,2,2,11,14,3,9,18,2,2,9,0,2,8,10,0,8,0,0,5,0,0,1,1,0,0,0,1,175.txt
1,3,1,1,8,0,1,1,4,0,1,7,4,4,5,5,2,3,2,2,2,2,0,0,0,26,0,5,5,13,12,5,15,5,14,5,6,5,5,5,5,5,5,5,5,5,5,5,12,4,0,1,1,2,2,1,1,177.txt
1,3,1,1,10,0,6,1,4,0,1,7,4,4,5,3,2,3,2,2,2,2,2,2,3,6,3,15,9,3,10,3,4,2,13,3,15,4,4,11,3,9,9,11,3,3,3,9,10,3,0,1,1,2,2,1,1,179.txt
1,3,1,1,8,0,1,3,4,0,1,7,4,4,3,5,2,3,2,2,2,2,2,2,3,6,3,2,3,3,3,3,4,2,13,3,4,4,4,3,3,10,3,3,9,3,3,9,2,0,0,1,1,2,2,2,1,182.txt
1,3,1,1,8,0,1,1,4,0,1,7,10,3,5,3,2,3,2,2,2,2,2,2,3,20,11,10,6,14,11,6,7,13,10,6,17,8,8,6,6,8,7,9,10,6,1,5,2,4,4,2,2,2,2,2,1,184.txt
1,3,1,1,10,0,1,1,4,0,1,7,10,3,5,3,2,3,2,2,2,2,2,2,3,20,7,7,6,7,7,7,8,7,8,7,8,7,7,6,6,7,6,7,6,6,6,1,3,4,2,2,2,2,2,2,0,188.txt
5,1,1,1,8,0,1,1,4,0,1,7,5,4,5,3,2,3,2,4,2,2,2,2,3,29,4,3,8,8,2,2,3,20,3,9,9,2,2,8,8,2,8,8,8,8,10,7,13,5,1,1,1,0,0,0,2,189.txt
1,3,1,1,8,0,1,1,4,0,1,7,5,3,5,4,2,3,2,2,2,2,2,2,3,20,11,10,6,12,11,6,13,22,12,6,17,3,3,6,4,4,4,4,4,4,4,4,4,4,4,2,2,2,1,2,0,191.txt
1,1,1,1,8,0,1,1,4,3,1,7,4,5,3,1,2,3,2,2,2,2,2,2,3,29,4,3,2,8,1,2,3,20,3,1,1,1,1,1,1,1,1,1,1,1,1,1,1,2,2,0,3,0,0,1,1,194.txt
1,3,1,1,8,0,1,4,4,0,1,7,4,3,3,3,2,3,2,2,2,2,2,2,3,20,11,10,6,14,11,11,7,6,10,10,7,8,8,6,11,8,7,9,7,7,1,1,2,4,2,2,2,2,2,2,0,197.txt
1,3,1,1,8,0,1,9,4,0,1,7,4,4,5,3,2,3,2,2,2,2,2,2,3,0,3,2,3,3,3,3,4,2,13,3,15,12,4,11,3,10,3,11,3,3,3,9,4,0,0,2,1,2,2,1,1,199.txt
1,3,1,1,8,0,1,15,4,0,1,7,10,3,5,3,2,3,2,2,2,2,2,2,3,20,11,10,6,6,11,11,13,6,15,6,17,13,13,6,11,6,10,7,6,7,6,5,11,4,4,2,2,2,2,2,0,203.txt
1,3,1,1,8,0,1,3,4,0,1,7,5,3,3,3,2,3,2,2,2,3,2,2,3,20,13,12,6,6,11,11,2,6,10,10,7,9,9,6,1,6,7,1,1,1,1,1,1,4,2,2,2,2,2,2,0,204.txt
5,1,1,1,8,0,1,1,4,0,1,7,5,5,5,4,2,0,0,0,0,0,0,0,0,29,0,3,8,2,2,2,3,19,3,2,9,2,2,8,0,2,8,8,8,8,8,7,13,6,1,0,0,0,0,0,2,209.txt
1,3,1,1,10,0,1,1,4,0,1,7,4,5,5,3,2,3,2,2,2,2,2,2,3,4,8,7,7,7,7,7,8,7,8,7,8,7,7,7,7,7,6,1,1,1,1,1,2,4,4,2,2,2,2,2,0,210.txt
1,3,1,1,8,0,1,1,4,0,1,7,4,3,5,3,2,3,2,2,2,2,2,2,3,20,11,10,6,12,11,6,12,22,7,6,17,11,8,6,6,8,7,9,10,7,7,5,3,4,4,2,2,2,2,2,0,212.txt
5,1,1,1,8,0,1,1,4,21,1,7,4,5,5,3,2,3,2,4,2,2,2,2,3,30,4,3,8,8,2,2,3,20,3,9,9,2,2,8,8,2,8,8,8,8,8,7,13,6,1,0,0,0,1,0,1,214.txt
1,3,1,1,9,0,1,1,4,0,1,7,10,5,3,3,2,4,2,2,2,3,2,2,3,27,6,5,5,5,5,1,1,1,1,1,1,1,1,1,1,1,1,1,1,1,1,1,1,2,0,2,2,2,2,1,1,217.txt
1,3,1,1,3,0,8,1,5,0,1,7,4,4,3,5,2,3,2,2,2,2,2,2,3,20,11,10,6,6,11,11,7,23,15,6,7,6,6,6,6,6,10,6,7,6,7,5,12,0,0,1,1,2,2,2,0,219.txt
1,3,1,1,8,0,1,1,4,0,1,7,10,3,5,3,2,3,2,2,2,2,2,2,3,20,11,10,6,6,11,11,7,6,15,6,7,9,6,6,6,6,10,6,7,7,7,5,11,4,4,2,2,2,2,2,0,220.txt
1,3,1,1,8,0,6,1,4,0,1,7,4,4,5,3,2,3,2,2,2,2,2,2,3,0,5,4,4,4,4,4,5,4,5,4,5,3,3,4,4,4,4,4,4,4,4,4,12,4,4,2,1,2,2,2,0,222.txt
1,3,1,1,10,0,1,1,0,0,1,7,4,4,5,3,2,3,2,2,2,2,2,2,3,20,0,10,6,6,6,11,7,6,15,6,7,9,6,6,6,6,10,6,7,7,7,5,7,4,0,1,1,2,2,2,0,225.txt
1,3,1,1,8,0,1,15,4,0,1,7,5,3,5,3,2,3,2,2,2,2,2,2,3,20,11,10,6,12,11,6,7,22,12,6,16,7,7,6,11,7,6,9,10,6,6,1,1,4,2,2,2,2,2,2,0,227.txt
1,3,1,1,8,0,1,1,4,0,1,7,4,3,5,3,2,3,2,2,2,2,2,2,3,20,11,10,6,6,6,6,7,6,7,6,17,10,10,6,6,6,7,4,4,4,4,4,11,4,4,2,2,2,2,2,0,229.txt
1,3,1,1,8,0,1,1,4,0,1,7,4,4,3,3,2,3,2,2,2,2,2,2,3,13,5,4,4,4,4,4,5,4,5,4,5,8,8,4,4,4,4,4,4,4,4,4,12,0,0,1,1,2,2,2,0,231.txt
1,1,1,1,10,0,1,1,4,0,1,7,10,3,5,3,2,3,2,2,2,2,2,2,3,4,9,8,7,7,7,7,8,3,8,7,8,7,7,7,7,5,6,5,5,5,5,6,11,4,4,2,2,2,2,1,1,236.txt
1,1,1,1,8,0,1,15,4,0,1,7,5,5,5,3,2,3,2,2,2,2,2,2,3,1,4,3,8,8,2,2,11,21,3,9,18,2,2,9,0,2,8,8,8,1,1,7,2,1,2,0,1,0,0,0,0,241.txt
1,3,1,1,8,0,1,20,4,0,1,7,4,4,3,3,2,3,2,2,2,2,2,2,3,20,11,10,6,6,11,11,14,6,15,6,7,9,6,6,11,6,7,6,7,6,7,5,11,4,4,1,1,2,2,2,0,242.txt
1,3,1,1,10,0,1,1,4,0,1,7,4,4,5,3,2,3,2,2,2,3,2,2,3,20,7,6,6,9,9,8,9,12,10,10,16,6,9,6,6,7,7,9,1,1,1,1,1,4,2,1,1,2,2,2,1,245.txt
1,1,1,1,8,0,1,1,4,0,1,7,4,4,5,3,2,3,2,2,2,2,2,2,3,2,9,8,4,4,4,4,5,10,5,4,5,3,3,4,4,4,4,4,4,4,4,4,12,4,4,1,1,1,1,2,1,247.txt
1,3,1,1,17,0,6,1,9,0,1,7,5,5,3,3,2,3,2,2,2,2,2,2,3,20,11,10,6,6,6,11,13,23,10,10,7,6,13,6,6,6,4,4,4,4,4,4,3,4,2,2,2,2,1,2,0,249.txt
1,3,1,1,3,0,1,3,4,0,1,7,5,5,5,4,2,3,2,2,2,2,2,2,3,20,11,10,6,14,11,11,13,23,10,10,7,9,9,6,11,7,7,9,7,1,1,5,2,0,0,2,2,1,1,2,0,250.txt
1,3,1,1,8,0,1,15,4,0,1,7,5,5,5,3,2,3,2,2,2,3,2,2,3,6,3,2,3,3,3,3,4,2,4,3,15,10,12,3,10,9,9,11,1,1,1,9,2,3,2,2,2,2,2,2,0,252.txt
1,1,1,1,8,0,1,1,4,0,1,7,4,4,5,3,2,3,2,2,2,2,2,2,3,26,18,9,5,13,12,5,15,15,14,5,6,5,5,5,5,5,5,5,5,5,5,4,12,0,0,1,1,2,2,1,1,256.txt
1,3,1,1,8,0,1,1,4,0,1,7,5,3,5,3,2,3,2,2,2,2,2,2,3,20,11,10,6,6,11,6,14,22,7,6,17,6,9,6,6,6,7,9,10,6,7,5,11,4,4,2,2,2,1,2,0,258.txt
1,3,1,1,8,0,1,1,4,0,1,7,10,3,5,3,2,3,2,2,2,3,2,2,3,20,11,10,6,14,11,11,7,13,10,6,8,7,7,6,6,7,6,9,10,6,6,5,1,4,2,2,2,2,2,2,1,260.txt
4,1,1,1,8,0,6,1,4,0,1,7,4,4,5,5,2,3,2,2,2,2,2,2,3,18,4,3,8,2,2,2,3,20,3,9,2,2,2,9,0,2,8,8,8,8,8,0,13,1,1,1,1,0,0,0,2,261.txt
1,3,1,1,10,0,1,1,4,0,1,7,4,3,5,3,2,3,2,2,2,2,2,2,3,20,11,10,6,14,6,11,7,6,7,6,7,8,8,6,6,6,7,6,7,7,7,5,7,4,4,2,1,2,2,2,0,264.txt
1,3,1,1,8,0,7,1,4,0,1,7,4,4,3,3,2,3,2,2,2,2,2,2,3,20,11,10,6,6,6,11,7,6,7,6,7,8,8,6,6,6,7,6,7,7,7,5,11,4,4,2,1,2,2,2,0,269.txt
1,3,1,1,8,0,1,15,4,0,1,7,4,4,5,4,2,3,2,2,2,2,2,2,3,6,3,2,9,3,3,3,4,2,4,3,15,4,4,11,3,3,3,11,9,3,3,1,1,0,0,1,1,2,2,1,1,272.txt
1,3,1,1,8,0,1,1,4,0,1,7,5,3,5,3,2,3,2,2,2,2,2,2,3,6,3,2,3,3,3,3,4,2,4,3,4,11,11,3,3,3,11,3,3,9,3,3,10,3,3,2,2,2,2,2,1,274.txt
5,1,3,3,8,0,1,1,4,2,3,1,5,3,4,3,3,3,2,4,2,2,4,2,4,13,19,11,8,2,8,9,16,16,9,12,9,14,2,8,8,2,8,8,8,8,13,0,0,7,5,3,1,1,1,0,2,276.txt
1,3,1,1,8,0,1,1,4,0,1,7,5,5,5,4,2,3,2,2,2,2,2,2,3,20,11,10,6,14,11,11,13,13,15,6,7,3,3,4,4,4,4,4,4,4,4,4,12,4,4,2,2,2,2,2,1,280.txt
1,3,1,1,8,0,1,3,4,0,1,7,4,3,3,3,2,3,2,2,2,2,2,2,3,20,11,10,6,6,11,11,12,6,10,6,7,8,8,6,11,6,7,6,7,7,7,5,2,4,2,2,2,2,2,2,0,282.txt
1,3,1,1,8,0,6,1,4,0,1,7,10,4,5,5,2,3,2,2,2,2,2,2,3,20,11,10,6,6,11,6,12,22,15,10,17,6,13,6,11,6,10,7,6,6,7,5,4,4,2,1,1,2,1,2,0,283.txt
1,1,1,1,8,0,1,1,4,0,1,7,5,3,5,3,2,3,2,2,2,2,2,2,3,29,4,3,8,8,2,2,11,20,3,9,13,2,2,9,0,2,8,10,0,8,11,0,9,1,1,0,0,0,0,0,1,284.txt
1,1,1,1,10,0,1,1,4,0,1,7,4,4,5,3,2,3,2,2,2,2,2,2,3,29,4,3,8,8,2,2,3,19,3,9,10,2,2,9,0,2,8,8,8,8,8,0,9,1,1,0,1,0,0,0,0,286.txt
1,1,1,1,8,0,1,1,4,0,1,7,4,4,5,3,2,3,2,2,2,2,2,2,3,20,7,6,6,9,9,8,9,12,12,10,16,6,13,6,6,6,6,7,6,7,6,6,4,4,0,1,1,2,2,2,0,288.txt
4,1,1,1,8,0,1,1,4,0,1,7,4,5,5,3,2,3,2,2,2,2,2,2,3,5,4,3,8,8,2,2,3,20,3,2,10,2,2,10,0,2,8,8,8,8,8,0,13,1,1,0,0,0,1,0,1,290.txt
1,3,1,1,8,0,3,6,5,0,1,7,4,4,3,3,2,3,2,2,2,2,2,2,3,20,11,10,6,6,11,11,14,23,15,6,7,9,9,6,11,6,10,6,7,7,7,5,4,4,0,1,1,2,1,2,0,293.txt
5,1,1,1,8,0,1,1,4,0,1,7,5,5,5,4,2,3,2,4,2,2,2,2,3,2,4,3,8,2,2,2,3,20,3,9,9,2,2,8,0,2,8,8,8,8,8,8,13,6,1,0,0,0,0,0,2,295.txt
1,3,1,1,8,0,1,3,4,24,1,7,5,3,3,4,2,3,2,2,2,2,2,2,3,20,9,8,12,9,1,1,1,3,10,1,1,1,1,7,7,5,6,7,6,1,1,6,2,2,2,2,2,2,2,1,1,297.txt
4,1,1,1,10,0,1,6,4,0,1,7,4,4,5,3,2,3,2,5,2,2,2,2,3,29,4,3,8,8,2,2,3,19,3,9,10,2,2,10,0,2,8,8,8,8,8,0,13,1,1,0,1,0,1,0,2,300.txt
1,3,1,1,22,0,1,1,4,0,1,7,5,3,5,3,2,3,2,2,2,2,2,2,3,6,15,14,9,11,3,3,4,2,11,3,14,10,12,3,10,9,9,11,3,3,12,3,10,3,3,2,2,2,2,2,0,303.txt
4,1,1,1,8,0,1,1,4,0,1,7,4,4,5,3,2,3,2,4,2,2,2,2,3,4,4,3,8,2,2,2,3,20,3,9,10,2,2,8,0,2,8,8,8,8,8,7,13,1,1,0,1,0,1,1,1,305.txt
1,1,1,1,8,0,8,1,10,0,1,7,4,4,5,5,2,3,2,2,2,2,2,2,3,9,4,3,11,2,2,2,3,15,3,9,12,2,2,2,0,2,8,0,0,0,11,0,14,1,0,1,1,0,0,1,1,307.txt
1,1,1,1,7,0,8,1,5,0,1,7,4,4,5,3,2,3,2,2,2,2,2,2,3,5,8,7,7,7,7,7,8,7,8,7,8,7,7,7,7,7,6,7,6,6,6,6,3,0,0,1,1,2,1,2,1,311.txt
1,1,1,1,7,0,1,1,4,0,1,7,4,4,5,5,2,3,2,2,2,2,2,2,3,8,4,3,11,8,2,2,3,10,3,9,12,2,2,2,0,2,8,0,0,0,0,0,14,1,1,1,1,0,0,1,1,313.txt
1,3,1,1,8,0,1,3,4,0,1,7,4,5,3,4,2,3,2,2,2,2,2,2,3,20,11,10,6,6,11,11,12,6,10,10,7,9,6,6,11,1,1,9,7,7,7,1,1,4,2,2,2,2,2,2,0,318.txt
1,3,1,1,10,0,1,3,4,0,1,7,4,4,3,3,2,3,2,2,2,2,2,2,3,20,11,10,6,14,6,11,7,6,15,6,7,9,6,6,11,6,10,9,7,7,7,5,6,4,0,1,1,2,2,2,0,320.txt
1,1,1,1,8,0,1,1,4,3,1,7,5,3,5,4,2,3,2,2,2,2,2,2,3,29,4,3,2,1,1,1,1,18,3,1,1,1,1,8,0,2,0,0,0,0,11,1,1,2,1,0,1,0,1,1,1,322.txt
1,1,1,1,8,0,1,1,4,3,1,7,5,3,5,4,2,3,2,2,2,2,2,2,3,29,4,3,2,1,1,1,1,18,3,1,1,1,1,8,0,2,0,0,0,0,11,1,1,2,1,0,1,0,1,1,1,323.txt
1,3,1,1,8,0,1,1,4,0,1,7,4,4,5,3,2,3,2,2,2,2,2,2,3,20,11,10,10,15,11,6,7,13,7,6,17,10,11,6,11,8,7,9,7,7,5,5,0,4,0,1,1,2,2,1,1,324.txt
5,1,1,1,8,0,1,15,4,0,1,7,5,5,5,4,2,3,2,4,2,2,2,2,3,29,4,3,8,8,2,2,3,18,3,9,9,2,2,8,0,2,8,8,8,8,8,7,6,6,2,0,0,0,0,0,2,326.txt
5,1,1,3,8,0,1,6,4,10,1,13,5,5,5,5,6,3,2,4,2,2,2,2,2,18,12,3,8,2,2,2,10,18,3,8,9,2,2,8,8,2,8,8,8,8,13,0,13,7,5,3,3,0,0,0,2,328.txt
1,3,1,1,3,0,1,3,4,0,1,7,4,4,5,3,2,3,2,2,2,2,2,2,3,6,3,2,3,3,3,10,4,2,4,3,4,4,12,3,3,3,3,3,9,3,12,3,2,0,0,1,1,2,2,2,0,329.txt
1,3,1,1,8,0,1,18,4,0,1,7,10,4,3,3,2,3,2,2,2,2,2,2,3,6,16,2,3,3,3,10,4,2,4,3,4,4,4,3,3,3,3,3,9,3,3,3,10,3,3,1,1,2,2,2,0,333.txt
1,3,1,1,8,0,6,1,6,0,1,7,4,4,5,3,2,3,2,2,2,2,2,2,3,6,3,2,3,3,3,3,4,2,13,3,15,4,12,3,3,10,3,11,3,3,12,9,10,3,3,1,1,2,2,2,1,335.txt
1,3,1,1,15,0,1,1,4,0,1,7,4,5,5,5,2,3,2,2,2,2,2,2,3,20,11,10,6,6,6,11,7,23,7,6,7,9,13,6,6,4,4,4,4,4,4,4,11,4,3,2,2,2,2,2,0,337.txt
1,3,1,1,4,0,6,4,6,0,1,7,5,5,5,4,2,3,2,2,2,2,2,2,3,2,5,4,4,4,4,4,5,4,5,4,5,3,3,4,4,4,4,4,4,4,4,4,12,4,4,2,1,1,1,2,0,341.txt
5,1,1,1,26,0,1,1,4,30,1,7,5,5,5,4,2,3,2,4,2,2,2,2,3,5,4,3,8,8,2,2,3,19,3,9,9,2,2,8,8,2,8,8,8,8,10,0,13,5,1,0,0,0,0,0,1,342.txt
1,3,1,1,8,0,1,18,4,0,1,7,5,3,5,3,2,3,2,2,2,2,2,2,3,20,11,10,6,12,9,6,14,7,8,7,8,13,9,7,7,7,7,7,6,6,6,6,1,4,2,2,1,2,2,2,0,344.txt
1,1,1,1,0,0,1,1,0,0,1,7,1,3,5,3,2,3,2,2,2,2,2,2,3,20,7,6,6,9,9,8,9,12,12,6,16,6,9,6,11,0,7,7,10,6,6,6,11,4,4,2,2,2,2,2,0,347.txt
1,1,1,1,8,0,1,1,4,0,1,7,5,5,5,3,2,3,2,2,2,2,2,2,3,29,4,3,8,2,2,2,3,20,3,9,18,2,2,9,0,2,8,8,8,8,8,7,9,1,1,0,0,0,0,0,0,349.txt
5,1,2,3,8,0,1,1,4,23,1,1,10,5,5,3,5,3,2,4,2,2,2,2,4,29,19,3,8,2,8,9,10,20,9,8,9,14,2,8,8,2,8,8,8,8,9,7,13,7,5,3,3,0,1,0,2,352.txt
5,1,1,1,8,0,1,1,4,0,1,7,10,3,5,3,2,3,2,4,2,2,2,2,3,29,4,3,8,8,2,2,3,17,3,9,9,2,2,8,8,2,8,8,8,8,10,0,6,5,1,0,0,0,0,0,2,354.txt
1,3,1,1,8,0,1,1,4,0,1,7,4,3,5,3,2,3,2,2,2,2,2,2,3,20,11,10,6,6,11,11,14,6,15,6,7,6,6,6,6,6,7,6,4,4,4,4,7,4,4,2,2,2,2,2,0,358.txt
1,3,1,1,8,0,6,3,4,0,1,7,4,4,3,4,2,3,2,2,2,2,2,2,3,6,16,2,3,3,3,3,4,2,13,3,4,12,4,3,3,10,3,3,3,3,3,9,10,3,0,1,1,2,2,2,0,360.txt
4,1,1,1,8,0,1,1,4,0,1,7,5,4,5,3,2,3,2,4,2,2,2,2,3,29,4,3,8,8,2,2,3,20,3,9,10,2,2,10,0,2,8,8,8,8,8,0,13,1,1,0,1,0,0,0,2,362.txt
1,3,1,1,8,0,1,15,4,0,1,7,4,5,5,3,2,3,2,2,2,3,2,2,3,20,11,12,6,12,9,12,14,12,12,6,8,13,9,7,7,7,6,4,4,4,4,1,1,4,4,2,2,2,2,2,0,364.txt
1,3,1,1,10,0,6,1,8,0,1,7,4,4,5,3,2,3,2,2,2,2,2,2,3,20,11,10,6,6,6,11,14,6,7,6,7,9,6,6,6,6,7,6,10,4,4,5,0,4,0,1,1,2,2,2,0,365.txt
1,3,1,1,8,0,6,1,4,0,1,7,10,4,5,4,2,3,2,2,2,2,2,2,3,20,11,10,6,14,11,11,12,23,10,10,7,9,6,6,6,8,7,9,7,1,1,2,1,4,2,2,1,2,2,2,0,368.txt
1,1,1,1,8,0,1,1,4,0,1,7,4,3,5,3,2,3,2,2,2,2,2,2,3,29,4,3,8,8,2,2,11,20,3,9,11,2,2,9,0,2,8,10,0,8,11,8,1,1,2,0,0,0,0,0,1,369.txt
1,3,1,1,8,0,1,1,4,0,1,7,4,5,5,5,2,3,2,2,2,2,2,2,3,20,11,10,6,6,6,6,7,6,7,6,17,9,6,6,11,6,7,6,10,7,7,5,11,4,4,2,2,2,2,2,0,371.txt
1,1,1,1,3,0,1,3,4,3,1,7,4,3,3,4,2,3,2,2,2,2,2,2,3,29,4,3,2,8,2,2,3,19,3,9,10,2,1,10,0,2,0,1,1,1,1,1,1,0,0,0,3,1,1,1,1,375.txt
5,1,1,1,8,0,1,1,4,0,1,7,4,4,5,3,2,3,2,4,2,2,2,2,3,1,4,3,8,2,2,2,3,20,3,9,9,2,2,8,8,2,8,8,8,8,10,0,13,5,1,1,1,0,0,0,2,377.txt
5,1,1,1,8,0,1,1,4,0,1,7,4,3,5,3,2,3,2,4,2,2,2,2,3,29,4,3,8,8,2,2,11,20,3,2,9,2,2,8,0,2,8,8,8,8,8,0,13,6,1,0,0,0,0,0,2,380.txt
1,1,1,1,10,0,0,2,0,0,0,2,5,1,2,1,0,0,0,0,0,0,0,0,0,7,0,3,2,8,2,2,3,1,1,1,1,1,1,2,0,1,1,1,1,1,1,1,1,2,2,0,0,0,0,1,1,382.txt
1,3,1,1,8,0,3,1,5,0,1,7,4,4,5,3,2,3,2,2,2,2,2,2,3,6,3,15,9,3,10,3,4,2,4,3,15,4,4,11,3,10,3,11,9,3,3,9,10,3,0,1,1,2,2,1,1,385.txt
1,1,1,1,8,0,1,3,4,3,1,4,9,3,5,4,2,3,2,2,2,3,2,2,3,29,4,3,2,1,1,1,1,20,3,1,1,1,1,1,1,1,1,0,0,0,1,1,1,2,1,0,3,0,1,1,1,386.txt
1,3,1,1,8,0,1,1,4,0,1,7,10,3,5,5,2,3,2,2,2,2,2,2,3,20,11,10,6,6,11,11,12,6,10,10,2,13,13,6,11,6,6,7,1,1,1,1,1,4,2,2,2,2,2,2,0,387.txt
4,1,1,1,8,0,1,1,4,0,1,7,10,3,5,3,2,3,2,2,2,2,2,2,0,5,0,3,8,8,2,2,3,20,3,2,10,2,2,9,0,2,8,8,8,8,8,7,2,1,1,0,0,0,0,0,2,391.txt
1,3,1,1,8,0,1,6,4,0,1,7,5,5,5,3,2,3,2,2,2,2,2,2,3,13,5,4,4,4,4,4,5,4,5,4,5,3,3,4,4,4,4,4,4,4,4,4,12,4,4,2,1,2,2,2,0,394.txt
5,1,1,1,8,0,6,1,4,0,1,7,10,3,5,4,2,3,2,4,2,0,0,0,0,2,0,3,8,2,2,2,3,18,3,2,9,2,2,8,0,2,8,8,8,8,8,0,13,6,1,0,0,0,1,0,2,395.txt
1,3,1,1,8,0,1,1,4,0,1,7,4,4,5,3,2,3,2,2,2,2,2,2,3,20,11,10,6,6,6,11,14,6,10,6,17,9,6,6,6,6,7,6,10,7,6,5,12,0,0,1,1,2,2,2,0,397.txt
1,3,1,1,8,0,6,1,4,0,1,7,4,4,5,3,2,0,0,0,0,0,0,0,0,20,0,6,12,9,11,8,9,5,7,6,17,10,10,6,6,5,7,9,5,5,5,6,11,0,0,1,1,2,2,1,1,400.txt
1,1,1,1,8,0,1,1,4,0,1,7,4,3,5,3,2,3,2,2,2,2,2,2,3,20,9,8,12,9,11,8,9,10,7,6,17,10,10,6,6,5,6,4,4,6,5,4,12,4,3,2,2,1,1,1,1,402.txt
1,1,1,1,8,0,1,15,4,0,1,7,4,5,5,3,2,3,2,2,2,2,2,2,3,4,4,3,8,2,2,2,3,20,3,9,13,2,2,9,0,2,8,10,0,8,11,0,9,1,1,0,0,0,0,0,1,405.txt
1,3,1,1,4,0,1,3,4,0,1,7,4,4,5,4,2,3,2,2,2,2,2,2,3,20,11,10,10,15,11,6,14,13,15,6,17,13,13,6,11,7,7,9,10,5,5,5,12,0,0,1,1,2,2,1,1,407.txt
1,1,1,1,8,0,1,1,4,21,1,7,5,5,5,3,2,3,2,2,2,2,2,2,3,13,4,3,11,2,2,2,3,18,3,9,10,2,2,8,0,2,8,10,0,8,11,0,9,2,1,0,0,0,1,1,1,411.txt
5,1,1,1,8,0,1,24,4,0,1,7,5,3,5,4,2,3,2,4,2,2,2,2,3,29,4,3,8,8,2,2,3,20,3,9,9,2,2,8,0,2,8,8,8,8,8,7,4,1,1,0,0,0,0,0,2,413.txt
4,1,1,1,8,0,1,1,4,0,1,7,4,5,5,5,2,3,2,2,2,2,2,2,3,19,4,3,8,2,2,2,3,20,3,9,10,2,2,10,0,2,8,8,8,8,8,0,13,1,1,0,0,0,0,0,2,416.txt
1,1,1,1,8,0,1,3,4,21,1,7,4,4,5,5,2,3,2,2,2,2,2,2,3,29,4,3,2,8,2,2,11,3,3,9,12,2,2,2,0,2,0,0,0,0,11,1,1,2,2,1,1,0,0,1,1,417.txt
1,3,1,1,8,0,1,1,4,0,1,7,5,5,3,3,2,3,2,2,2,2,2,2,3,20,11,10,6,6,11,11,13,6,10,10,7,9,6,6,11,6,7,6,7,7,7,5,3,4,2,2,2,2,2,2,0,419.txt
1,3,1,1,8,0,6,3,6,0,1,7,4,4,5,5,2,3,2,2,2,2,2,2,3,20,11,10,12,15,11,6,7,5,7,6,17,13,13,6,11,5,10,9,10,7,5,6,11,0,0,1,1,2,2,1,1,421.txt
1,3,1,1,8,0,6,1,4,0,1,7,4,4,5,3,2,3,2,2,2,2,2,2,3,20,11,10,6,14,11,11,7,13,7,6,7,9,6,6,11,8,7,9,7,7,7,5,11,4,0,1,1,2,2,2,1,423.txt
5,1,1,1,8,0,1,1,4,19,1,7,5,5,5,3,2,3,2,4,2,2,2,2,3,29,4,3,8,2,2,2,3,20,3,9,9,2,2,8,8,2,8,8,8,8,8,0,13,6,1,0,0,0,1,1,1,425.txt
1,3,1,1,8,0,1,11,4,0,1,7,4,4,3,3,2,3,2,2,2,2,2,2,3,20,11,10,6,6,11,11,7,6,7,6,7,9,6,6,11,6,7,6,7,7,7,5,6,0,0,1,1,2,2,2,0,427.txt
1,3,1,1,8,0,1,12,4,0,1,7,4,4,3,3,2,3,2,2,2,2,2,2,3,20,11,10,6,6,11,11,7,6,7,6,7,9,6,6,11,6,7,6,7,7,7,5,11,4,4,1,1,2,2,2,0,430.txt
1,1,1,1,8,0,6,1,4,0,1,7,4,4,5,4,2,3,2,2,2,2,2,2,3,29,4,3,8,2,2,2,3,20,3,2,10,2,2,9,0,2,8,8,8,8,8,0,9,0,0,1,1,0,0,0,1,434.txt
1,3,1,1,8,0,6,1,4,0,1,7,5,5,5,5,2,3,2,2,2,4,2,2,3,20,13,12,10,14,6,11,12,13,10,10,7,6,9,6,6,8,7,9,1,1,1,1,1,4,2,2,2,2,2,1,1,436.txt
1,3,1,1,8,0,1,1,4,0,1,7,4,4,5,3,2,3,2,2,2,2,2,2,3,20,11,10,6,14,11,6,14,6,7,6,17,10,10,4,4,4,4,4,4,4,4,4,12,4,4,1,1,2,2,2,0,439.txt
1,3,1,1,8,0,1,1,4,0,1,7,5,5,5,4,2,3,2,2,2,2,2,2,3,20,11,10,6,6,11,11,14,23,15,10,7,13,13,6,11,6,7,6,4,7,4,4,4,4,4,2,2,2,2,2,0,444.txt
1,1,1,1,8,0,1,1,4,0,1,7,5,5,5,3,2,3,2,2,2,2,2,2,3,20,9,8,10,9,9,8,9,10,12,6,16,7,7,6,6,7,6,7,6,5,5,6,5,4,4,2,2,1,1,2,1,447.txt
1,3,1,1,3,0,6,1,4,0,1,7,10,5,3,4,2,3,2,2,2,2,2,2,3,20,11,10,6,6,11,11,13,23,15,10,7,13,13,6,11,6,10,6,6,7,7,5,5,4,0,2,2,2,2,2,0,449.txt
1,3,1,1,8,0,1,1,4,0,1,7,4,3,5,3,2,3,2,2,2,2,2,2,3,20,11,10,6,15,11,12,12,13,10,6,17,9,13,6,6,8,7,9,1,1,1,1,1,4,2,2,2,2,2,2,1,452.txt
5,1,1,1,8,0,6,1,6,0,1,7,5,4,5,4,2,3,2,4,2,2,2,2,3,13,4,3,8,2,2,2,3,20,3,9,9,2,2,8,0,2,8,8,8,8,8,7,6,6,1,0,1,0,0,0,2,454.txt
4,1,1,1,8,0,1,1,4,0,1,7,5,5,5,3,2,3,2,4,2,2,2,2,3,2,4,3,8,2,2,2,3,18,3,9,9,2,2,8,0,2,8,8,8,8,8,0,13,1,1,0,0,0,1,0,1,456.txt
1,1,1,1,7,0,1,1,4,0,1,7,4,4,5,3,2,3,2,2,2,2,2,2,3,6,14,13,9,10,10,3,4,2,11,11,14,4,4,11,3,9,9,11,9,3,3,3,10,3,3,2,1,2,2,2,0,458.txt
1,1,1,1,8,0,1,1,4,0,1,7,4,4,5,3,2,3,2,2,2,2,2,2,3,4,17,5,5,13,12,5,15,7,14,5,6,5,5,5,5,7,5,5,5,5,5,6,6,0,0,1,1,2,2,1,1,460.txt
1,3,1,1,10,0,1,1,4,0,1,7,10,5,5,3,2,3,2,2,2,2,2,2,3,20,11,10,6,15,6,12,12,12,10,10,16,6,9,7,7,8,10,7,6,6,6,1,2,4,2,2,2,2,1,2,1,463.txt
4,1,1,1,7,0,1,5,4,0,1,7,4,5,5,3,2,3,2,2,2,2,2,2,3,18,4,3,8,2,2,2,3,20,3,9,10,2,2,10,0,2,8,8,8,8,8,0,13,1,1,0,1,0,1,0,2,465.txt
1,3,1,1,8,0,4,1,6,0,1,7,4,4,5,3,2,3,2,2,2,2,2,2,3,20,11,10,6,9,9,8,9,12,12,6,16,6,9,6,6,8,7,7,6,5,6,6,12,4,0,1,1,2,1,2,1,469.txt
1,1,1,1,3,0,6,8,4,11,1,7,10,5,5,4,2,3,2,2,2,2,2,2,3,2,4,3,2,8,2,2,11,11,3,9,0,2,2,2,0,2,0,0,0,0,11,0,1,2,0,0,1,0,0,1,1,472.txt
1,1,1,1,8,0,3,1,5,0,1,7,4,4,5,4,2,3,2,2,2,2,2,2,3,29,4,3,8,8,2,2,3,21,3,9,18,2,2,9,0,2,8,10,8,8,0,0,4,0,0,1,1,0,0,0,0,473.txt
1,3,1,1,10,0,4,1,5,0,1,7,4,4,5,3,2,3,2,2,2,2,2,2,3,20,11,10,6,14,6,6,14,13,7,6,17,3,3,4,4,4,4,4,4,4,4,4,0,0,0,1,1,2,2,2,1,475.txt
1,1,1,1,8,0,1,1,4,0,1,7,4,3,5,3,2,3,2,2,2,2,2,2,3,29,4,3,11,2,2,2,3,20,3,9,18,2,2,9,0,2,8,12,0,0,11,0,14,1,1,0,1,0,1,1,1,477.txt
1,1,1,1,8,0,1,1,4,0,1,7,4,4,5,3,2,3,2,2,2,2,2,2,3,8,4,3,11,2,2,2,3,14,3,9,11,2,2,9,0,2,8,10,0,8,0,0,9,1,0,1,1,0,0,2,1,479.txt
4,1,1,1,8,0,1,1,4,0,1,7,5,3,5,3,2,3,2,4,2,2,2,2,3,4,4,3,8,8,2,2,3,17,3,9,9,2,2,8,0,2,8,8,8,8,8,0,13,1,1,0,0,0,1,0,2,481.txt
1,1,1,1,8,0,1,1,4,0,1,7,4,4,5,3,2,3,2,2,2,2,2,2,3,20,9,8,6,9,9,8,9,10,12,6,16,10,10,6,11,8,7,9,4,7,4,4,11,4,4,1,1,2,2,2,0,485.txt
1,3,1,1,8,0,1,1,4,0,1,7,5,3,5,3,2,3,2,2,2,2,2,2,3,20,11,10,6,15,11,6,13,13,7,6,17,10,10,6,6,8,7,9,10,7,7,5,11,4,3,2,2,2,2,2,1,487.txt
1,3,1,1,8,0,1,1,4,0,1,7,10,3,5,3,2,3,2,2,2,2,2,2,3,20,11,10,6,12,9,6,14,22,12,6,16,6,9,6,6,7,6,7,10,7,4,5,6,4,4,2,2,1,1,2,0,488.txt
1,3,1,1,8,0,1,1,4,0,1,7,5,3,5,3,2,3,2,2,2,2,0,0,0,6,0,2,3,3,3,3,4,2,4,3,4,12,10,3,3,10,3,11,9,3,12,9,3,3,2,2,2,2,2,2,0,491.txt
1,3,1,1,10,0,1,1,4,0,1,7,4,3,5,3,2,3,2,2,2,2,2,2,3,20,11,10,6,12,6,6,7,6,7,6,17,7,7,6,11,7,6,9,10,4,4,5,11,4,4,2,2,2,2,2,0,492.txt
1,3,1,1,7,0,1,15,4,0,1,7,4,4,5,3,2,3,2,2,2,2,2,2,3,0,5,4,4,4,4,4,5,4,5,4,5,3,3,4,4,4,4,4,4,4,4,4,12,4,4,1,1,1,1,2,0,494.txt
5,1,2,3,8,0,1,1,4,27,1,10,10,5,5,3,5,3,2,4,2,2,2,2,4,1,12,3,8,8,8,9,16,18,9,12,9,14,2,8,8,2,8,8,8,8,13,8,6,7,5,3,3,1,1,0,1,496.txt
1,3,1,1,10,0,5,3,6,0,1,7,4,4,5,3,2,3,2,2,2,2,2,2,3,20,11,10,6,14,6,11,7,6,7,6,7,9,6,6,11,8,7,9,7,7,7,5,0,4,0,1,1,2,2,2,0,498.txt
1,3,1,1,8,0,1,18,4,0,1,7,4,3,5,3,2,3,2,2,2,2,2,2,3,20,7,6,6,9,9,6,9,12,12,6,16,9,13,6,11,8,7,9,10,4,4,6,11,4,4,2,2,2,2,2,0,500.txt
5,1,1,3,8,0,1,1,4,23,1,1,5,5,5,3,5,3,2,4,2,2,2,2,4,18,12,3,8,8,2,2,10,18,9,8,9,2,2,8,8,2,8,8,8,8,13,7,0,7,5,3,3,0,1,0,1,502.txt
5,1,1,1,8,0,1,1,4,18,1,7,5,3,5,3,2,3,2,4,2,2,2,2,3,4,4,3,8,2,2,2,3,20,3,9,9,2,2,8,8,2,8,8,8,8,8,7,13,6,1,0,0,0,1,1,1,503.txt
1,1,1,1,8,0,1,1,4,0,1,7,5,5,5,4,2,3,2,2,2,2,2,2,3,19,4,3,11,2,2,2,3,20,3,9,10,2,2,9,0,2,8,12,0,0,11,0,14,1,1,0,0,0,0,1,1,505.txt
1,3,1,1,8,0,6,1,4,0,1,7,4,4,5,3,2,3,2,2,2,2,2,2,3,20,11,10,10,9,11,8,9,12,12,6,16,4,10,6,6,7,7,9,5,5,5,6,11,4,0,1,1,2,2,2,1,507.txt
1,1,1,1,8,0,1,1,4,0,1,7,5,5,5,5,2,3,2,2,2,2,2,2,3,24,4,3,8,8,2,2,3,20,3,9,10,2,2,9,0,2,8,10,0,8,11,1,1,1,2,0,0,0,0,1,1,510.txt
1,1,1,1,3,0,6,1,6,0,1,7,4,4,5,5,2,3,2,2,2,2,2,2,3,29,4,3,8,2,2,2,3,20,3,9,13,2,2,9,0,2,8,10,0,8,11,7,6,0,0,1,1,0,0,1,1,513.txt
1,3,1,1,8,0,1,1,4,0,1,7,4,4,5,3,2,3,2,2,2,2,2,2,3,20,11,10,6,6,11,11,7,6,7,6,7,8,8,6,11,6,7,6,7,7,7,5,0,4,4,2,1,2,2,2,0,516.txt
5,1,1,1,8,0,1,1,4,0,1,7,5,5,5,4,2,3,2,4,2,2,2,2,3,29,4,3,8,8,2,2,3,18,3,2,9,2,2,10,0,2,8,8,8,8,8,7,13,1,1,0,0,0,0,0,2,518.txt
1,3,1,1,8,0,1,3,4,0,1,7,2,5,3,4,2,2,2,2,2,3,2,2,3,20,11,12,12,14,11,11,12,5,10,10,7,13,13,6,7,1,1,7,6,7,5,1,1,2,2,2,2,2,2,1,1,521.txt
1,1,1,1,8,0,6,3,6,17,1,7,4,4,3,5,2,3,2,2,2,2,2,2,3,20,9,8,12,9,11,8,9,3,7,6,17,13,13,6,11,5,7,9,7,4,5,6,12,2,4,1,1,2,2,1,1,524.txt
3,1,3,3,7,0,1,1,4,2,3,8,10,3,4,3,3,3,2,4,2,2,4,2,4,29,19,11,8,8,8,9,16,16,9,12,9,14,2,8,8,2,8,8,8,8,13,0,7,7,5,3,3,0,0,1,1,527.txt
1,3,1,1,8,0,7,18,4,0,1,7,10,3,5,3,2,3,2,2,2,2,2,2,3,6,3,2,3,3,3,3,4,2,13,3,15,12,4,3,3,10,3,11,3,3,3,9,7,3,3,2,2,2,2,2,0,529.txt
5,1,1,1,8,0,1,12,4,12,1,7,5,3,5,3,2,3,2,4,2,2,2,2,2,29,4,3,8,8,2,2,3,20,3,9,9,2,2,8,8,2,8,8,8,8,10,7,1,7,1,0,3,0,1,0,1,530.txt
1,1,1,1,8,0,1,1,4,0,1,7,8,3,5,4,2,3,2,2,2,2,2,2,3,29,4,3,8,8,2,2,3,20,3,9,10,2,2,9,0,2,8,10,0,8,11,7,9,1,1,0,0,0,1,1,1,532.txt
1,1,1,1,8,0,1,1,4,0,1,7,5,3,5,3,2,3,2,2,2,2,2,2,3,29,4,3,8,2,2,2,3,20,3,9,10,2,2,9,0,2,8,10,8,8,11,0,9,1,1,0,0,1,1,0,1,534.txt
1,3,1,1,8,0,1,1,4,0,1,7,5,3,5,4,2,3,2,2,2,2,2,2,3,6,3,2,3,3,3,3,4,2,4,3,15,10,12,3,10,3,11,11,9,3,12,3,6,3,3,2,2,2,2,2,1,536.txt
1,3,1,1,8,0,1,1,4,0,1,7,4,3,5,3,2,3,2,2,2,2,2,2,3,20,11,10,6,14,11,6,7,13,10,6,17,10,12,6,6,8,7,9,10,7,7,5,3,4,2,2,2,2,2,2,1,538.txt
4,1,1,1,8,0,1,1,4,0,1,7,5,3,5,3,2,3,2,3,2,2,2,2,3,4,4,3,8,2,2,2,3,20,3,9,10,2,2,10,0,2,8,8,8,8,8,7,13,1,1,0,0,0,0,0,2,541.txt
1,3,1,1,8,0,7,1,4,0,1,7,10,3,5,3,2,3,2,2,2,2,2,2,3,20,11,10,6,6,11,6,7,22,12,6,17,6,7,6,6,7,7,6,10,7,6,5,11,4,4,2,2,2,2,2,0,543.txt
1,3,1,1,8,0,1,1,4,0,1,7,4,3,5,3,2,3,2,2,2,2,2,2,3,20,11,10,6,6,11,11,14,6,7,6,7,12,10,4,4,4,4,4,4,4,4,4,12,4,3,2,2,2,2,2,0,545.txt
1,3,1,1,8,0,1,1,4,0,1,7,4,4,3,4,2,3,2,2,2,2,2,2,3,20,11,10,10,14,6,11,14,13,10,10,7,9,1,6,6,8,10,9,7,7,7,5,3,4,4,2,1,2,2,2,1,549.txt
1,1,1,1,10,0,1,1,0,0,1,7,5,5,5,5,2,3,2,2,2,2,2,2,3,20,7,6,6,9,9,8,9,12,12,6,16,3,3,6,4,4,4,4,4,4,4,4,12,4,4,2,2,2,2,2,0,551.txt
1,1,1,1,8,0,1,1,4,0,1,7,4,4,5,3,2,3,2,2,2,2,2,2,3,29,4,3,8,2,2,2,3,17,3,9,13,2,2,9,0,2,8,10,8,8,11,0,9,1,1,1,1,0,0,0,0,554.txt
5,1,2,3,8,0,1,1,4,28,1,1,5,5,5,4,5,3,2,4,2,2,2,2,4,18,12,3,8,2,8,9,10,20,9,8,9,2,2,8,8,2,8,8,8,8,13,0,0,7,5,3,3,0,0,0,2,557.txt
1,3,1,1,8,0,1,1,4,0,1,7,10,3,5,3,2,3,2,2,2,2,2,2,3,20,11,10,6,6,11,6,7,6,15,6,17,13,9,7,7,6,6,7,6,6,6,5,11,4,4,2,2,2,2,2,0,558.txt
1,1,1,1,8,0,1,24,4,0,1,7,4,4,5,3,2,3,2,2,2,2,2,2,3,18,4,3,8,2,2,2,3,20,3,9,18,2,2,9,0,2,8,10,0,8,11,7,0,1,0,1,1,0,0,0,1,561.txt
1,1,1,1,8,0,6,1,6,3,1,8,10,3,5,4,2,3,2,2,2,2,2,2,3,1,1,1,1,8,2,2,3,18,3,9,10,2,2,8,0,2,8,12,0,0,11,1,3,2,0,0,1,1,1,1,1,564.txt
1,1,1,1,8,0,1,1,4,0,1,7,5,4,5,3,2,3,2,2,2,2,2,2,3,20,0,6,6,9,9,8,9,12,12,10,16,6,9,6,6,7,6,7,6,5,6,6,2,4,2,2,1,1,1,2,1,566.txt
1,3,1,1,0,0,1,1,0,0,1,7,1,4,5,3,2,3,2,2,2,2,2,2,3,0,5,4,4,4,4,4,5,4,5,4,5,3,3,4,4,0,4,4,4,4,4,4,12,4,4,2,1,2,1,2,0,568.txt
1,3,1,1,10,0,1,1,0,0,1,7,4,4,5,3,2,3,2,2,2,2,2,2,3,20,11,10,6,12,6,6,14,22,12,6,17,6,9,6,6,7,7,7,10,6,6,5,12,4,4,2,1,2,2,2,0,572.txt
1,3,1,1,8,0,1,1,4,0,1,7,5,5,5,3,2,3,2,2,2,2,2,2,3,20,11,10,6,6,11,11,14,6,7,10,7,9,13,6,6,8,10,9,7,4,7,5,4,4,4,2,2,2,2,2,0,574.txt
1,3,1,1,8,0,7,1,5,0,1,7,4,4,5,4,2,3,2,2,2,2,2,2,3,20,11,6,6,9,11,8,9,12,12,6,16,7,7,6,6,7,6,7,6,5,5,6,11,0,0,1,1,2,2,2,1,576.txt
1,3,1,1,8,0,1,1,4,0,1,7,10,5,5,5,2,3,2,2,2,2,2,2,3,20,11,10,10,14,11,11,7,13,7,6,7,8,8,6,6,8,7,9,7,7,7,5,11,4,4,2,2,2,2,2,1,578.txt
1,1,1,1,8,0,1,1,4,0,1,7,5,3,5,4,2,3,2,2,2,2,2,2,3,19,4,3,11,2,2,2,3,20,3,9,10,2,2,9,0,2,8,12,0,0,11,0,14,1,1,0,0,0,1,1,1,580.txt
1,3,1,1,10,0,3,1,5,0,1,7,4,4,5,3,2,3,2,2,2,2,2,2,3,6,3,2,9,3,3,3,4,2,4,3,15,4,12,3,3,3,9,11,3,3,12,3,10,3,3,1,1,2,2,1,1,582.txt
1,3,1,1,8,0,1,1,4,0,1,7,4,4,3,3,2,3,2,2,2,2,2,2,3,20,11,10,6,6,11,11,12,23,10,6,7,8,8,6,6,1,1,1,1,1,1,1,1,4,2,1,1,2,2,2,0,584.txt
4,1,1,1,14,0,6,1,6,27,1,7,4,4,5,3,2,3,2,4,2,2,2,2,3,19,4,3,8,2,2,2,3,18,3,9,10,2,2,8,0,2,8,8,8,8,8,0,0,2,1,1,1,0,1,1,1,586.txt
1,3,1,1,8,0,1,1,4,0,1,7,4,5,5,5,2,3,2,2,2,2,2,2,3,20,11,10,6,6,11,11,7,6,15,6,7,13,13,6,11,6,4,4,4,4,4,4,11,4,4,2,2,2,2,2,0,588.txt
1,1,1,1,5,0,1,1,4,0,1,7,10,4,5,3,2,3,2,2,2,2,2,2,3,20,7,6,6,9,9,8,9,12,10,6,16,6,9,7,7,7,10,1,1,1,1,2,1,4,0,1,1,2,2,2,0,591.txt
1,1,1,1,8,0,1,1,4,0,1,7,4,3,5,3,2,3,2,2,2,2,2,2,3,18,4,3,8,2,2,2,3,20,3,9,10,2,2,9,0,2,8,8,8,8,8,0,0,1,1,0,0,0,0,0,0,594.txt
1,3,1,1,8,0,1,1,4,0,1,7,4,3,5,3,2,3,2,2,2,2,2,2,3,20,11,10,10,15,11,6,7,13,15,6,17,10,10,6,6,8,7,9,10,4,4,5,11,4,4,2,2,2,2,1,1,596.txt
1,3,1,1,8,0,3,1,5,0,1,7,4,4,3,3,2,3,2,2,2,2,2,2,3,20,13,10,6,14,6,11,13,23,10,6,7,8,8,6,6,6,10,6,7,1,1,1,1,0,0,1,1,2,2,2,0,598.txt
1,3,1,1,8,0,1,1,4,0,1,7,4,5,5,3,2,3,2,2,2,2,2,2,3,20,11,10,6,6,11,11,7,6,15,6,7,13,13,6,11,6,7,6,7,7,6,5,11,4,4,2,2,2,2,2,0,600.txt
1,3,1,1,4,0,1,1,0,0,1,7,4,4,5,3,2,3,2,2,2,2,2,2,3,20,11,10,10,15,6,6,13,13,10,6,17,9,6,6,6,7,7,9,10,6,6,6,6,4,2,1,1,2,2,2,1,603.txt
4,1,1,1,8,0,1,15,4,0,1,7,4,4,5,5,2,3,2,4,2,2,2,2,3,15,4,3,8,2,2,2,3,20,3,9,9,2,2,8,0,2,8,8,8,8,8,7,13,1,1,0,1,0,0,0,1,604.txt
1,3,1,1,8,0,1,3,4,0,1,7,5,5,5,5,2,3,2,2,2,2,2,2,3,20,11,10,6,6,11,11,13,6,7,6,7,13,9,6,11,6,7,6,10,7,6,5,0,4,4,2,2,2,2,2,0,606.txt
1,3,1,1,8,0,1,1,4,0,1,7,5,5,5,3,2,3,2,2,2,2,2,2,3,20,11,10,6,14,6,11,13,6,15,10,7,9,6,6,6,8,7,9,10,6,7,5,5,4,2,2,2,2,2,2,0,607.txt
1,3,1,1,8,0,1,1,4,0,1,7,5,3,5,3,2,3,2,2,2,2,2,2,3,20,11,10,6,6,7,7,8,7,8,7,8,13,9,7,7,7,6,7,6,6,6,5,11,4,4,2,2,1,1,2,0,613.txt
1,3,1,1,8,0,1,21,4,0,1,7,4,3,5,3,2,3,2,2,2,2,2,2,3,6,3,2,3,3,3,3,4,2,4,3,4,12,11,3,3,3,11,3,3,9,12,3,10,3,3,2,1,2,2,2,0,615.txt
1,3,1,1,8,0,1,4,4,0,1,7,4,5,5,3,2,3,2,2,2,2,2,2,3,20,11,10,6,6,6,11,7,6,10,6,7,8,8,6,11,8,7,1,1,1,1,1,2,4,2,2,2,2,2,2,0,618.txt
1,3,1,1,8,0,1,1,4,0,1,7,4,4,3,3,2,3,2,2,2,2,2,2,3,20,11,10,6,6,11,11,7,6,10,6,7,11,11,6,6,6,7,6,7,6,7,5,2,4,2,1,1,2,2,2,0,621.txt
1,3,1,1,8,0,1,11,4,0,1,7,4,4,5,3,2,3,2,2,2,2,2,2,3,6,3,15,3,3,3,10,4,2,4,3,4,11,11,11,3,3,11,3,9,9,3,3,3,3,0,1,1,2,2,1,1,623.txt
1,1,1,1,8,0,5,3,6,15,1,7,4,4,3,5,2,3,2,2,2,2,2,2,3,29,4,3,2,8,2,2,3,19,3,9,10,2,2,9,0,2,0,0,0,0,11,8,4,2,1,1,1,0,0,1,1,624.txt
1,3,1,1,8,0,1,1,4,0,1,7,4,4,5,3,2,3,2,2,2,2,2,2,3,6,3,2,3,3,3,3,4,2,13,3,4,4,4,3,3,10,3,11,9,3,3,9,2,3,2,2,1,2,2,1,1,627.txt
1,3,1,1,8,0,1,1,4,0,1,7,5,3,5,3,2,3,2,2,2,2,2,2,3,20,11,10,6,12,11,6,14,22,12,6,17,9,13,6,6,8,7,4,4,4,4,4,0,4,4,2,2,2,2,2,0,628.txt
1,3,1,1,8,0,1,15,4,0,1,7,4,3,5,3,2,3,2,2,2,2,2,2,3,6,3,2,3,3,3,3,4,2,13,3,15,4,4,3,3,10,3,11,3,3,3,9,0,3,3,2,2,2,2,2,0,629.txt
1,3,1,1,8,0,0,0,4,0,0,0,2,1,2,2,0,0,0,0,0,0,0,0,0,25,1,1,1,1,1,1,1,5,1,1,1,1,1,5,5,1,1,5,5,1,1,1,1,2,2,2,1,2,2,1,1,631.txt
5,1,1,1,3,0,1,1,4,0,1,7,4,3,5,4,2,3,2,4,2,2,2,2,3,29,4,3,8,8,2,2,3,18,3,9,9,2,2,8,0,2,8,8,1,1,1,1,2,0,0,0,1,0,1,0,2,633.txt
1,3,1,1,8,0,1,1,4,0,1,7,4,4,5,3,2,3,2,2,2,2,2,2,3,6,3,2,3,3,3,3,4,2,4,3,15,7,7,3,3,9,9,11,3,3,12,1,2,3,3,1,1,2,2,2,1,635.txt
1,3,1,1,8,0,1,1,4,0,1,7,4,3,5,3,2,3,2,2,2,2,2,2,3,20,11,10,10,15,11,6,7,12,12,6,17,6,9,6,6,8,10,4,5,5,5,4,11,4,4,2,2,2,2,2,1,637.txt
1,3,1,1,8,0,1,1,4,0,1,7,4,4,5,3,2,3,2,2,2,3,2,2,3,20,0,12,6,6,11,1,1,6,1,10,7,9,13,1,1,6,1,1,1,1,1,1,1,4,0,1,1,1,1,2,0,642.txt
1,3,1,1,8,0,6,15,6,0,1,7,4,4,5,3,2,3,2,2,2,2,2,2,3,20,11,10,6,12,11,6,7,6,7,6,17,13,9,6,11,7,7,9,10,7,6,5,11,0,0,1,1,2,2,2,0,645.txt
1,3,1,1,8,0,1,3,4,9,1,7,5,5,3,4,2,4,2,2,2,2,2,2,3,20,9,8,12,1,1,8,9,11,2,1,1,1,1,1,1,1,1,1,1,1,1,1,2,2,2,2,2,2,2,1,1,647.txt
1,3,1,1,8,0,1,15,4,0,1,7,5,3,5,4,2,3,2,2,2,2,2,2,3,20,11,10,6,9,11,12,9,12,12,10,16,9,9,6,11,8,7,9,10,7,6,6,11,4,4,2,2,2,2,2,0,650.txt
1,1,1,1,8,0,1,1,4,0,1,7,4,4,5,5,2,3,2,2,2,3,2,2,3,5,8,7,7,7,7,7,8,7,8,7,8,3,3,4,4,4,4,4,4,1,1,4,2,4,2,1,1,2,1,2,0,652.txt
1,3,1,1,8,0,1,1,4,0,1,7,4,4,3,3,2,3,2,2,2,2,2,2,3,13,5,4,4,4,4,4,5,4,5,4,5,3,3,4,4,4,4,4,4,4,4,4,12,4,0,2,1,2,2,2,0,654.txt
1,1,1,1,10,0,1,1,4,0,1,7,4,3,5,3,2,3,2,2,2,2,2,2,3,20,9,8,6,9,9,8,9,10,8,7,8,7,7,7,7,7,10,7,6,4,4,6,12,4,4,2,1,1,1,2,0,657.txt
1,3,1,1,8,0,1,1,4,0,1,7,5,5,5,3,2,3,2,2,2,2,2,2,3,20,11,10,10,14,11,11,13,13,10,6,7,8,8,6,6,8,7,9,7,7,7,5,3,4,3,2,2,2,2,1,1,658.txt
1,3,1,1,8,0,1,1,4,0,1,7,4,4,3,3,2,3,2,2,2,2,2,2,3,20,11,10,6,6,11,11,7,23,15,6,7,6,13,6,6,6,10,6,7,7,7,5,4,4,4,1,1,2,2,2,0,662.txt
1,1,1,1,8,0,1,15,4,0,1,7,5,3,5,4,2,3,2,2,2,2,2,2,3,29,4,3,8,8,2,2,3,21,3,9,18,2,2,9,0,2,8,8,1,8,1,7,2,1,1,0,0,0,0,0,0,663.txt
1,3,1,1,8,0,1,1,4,0,1,7,4,5,5,3,2,3,2,2,2,2,2,2,3,20,11,10,6,12,11,12,12,22,10,6,17,11,10,6,6,4,4,4,4,4,4,4,4,4,2,2,2,2,2,2,0,665.txt
1,3,1,1,8,0,1,1,4,0,1,7,4,3,5,3,2,3,2,2,2,2,2,2,3,6,14,13,9,10,3,3,4,2,11,11,14,12,4,11,3,9,9,11,9,3,1,3,2,3,2,2,2,2,2,2,0,669.txt
1,3,1,1,8,0,1,1,4,0,1,7,5,3,5,3,2,3,2,2,2,2,2,2,3,20,8,7,7,7,7,7,8,9,8,7,8,7,7,6,6,1,1,5,5,1,1,1,1,4,2,2,2,2,2,2,1,671.txt
1,1,1,1,8,0,1,1,4,0,1,7,10,5,5,3,2,3,2,2,2,3,2,2,3,3,4,3,8,8,2,2,3,20,3,9,13,2,2,1,1,2,1,1,1,1,1,1,1,1,2,0,0,1,1,0,1,673.txt
1,1,1,1,10,0,1,6,4,0,1,7,4,4,5,3,2,3,2,2,2,2,2,2,3,29,4,3,8,2,2,2,3,20,3,9,10,2,2,10,0,2,8,8,8,8,8,0,9,1,1,1,1,0,0,0,1,675.txt
1,1,1,1,8,0,1,1,4,3,1,8,5,5,5,5,2,3,2,2,2,2,2,2,3,18,4,3,11,2,2,2,3,20,3,9,10,2,2,8,0,2,8,10,0,8,11,7,9,2,1,0,3,0,0,1,1,678.txt
4,1,1,1,8,0,1,1,4,0,1,7,4,5,5,3,2,3,2,2,2,2,2,2,3,13,4,3,8,2,2,2,3,20,3,9,10,2,2,10,0,2,8,8,8,8,8,7,0,1,1,0,0,0,0,0,1,680.txt
1,3,1,1,8,0,1,1,4,0,1,7,4,3,5,3,2,3,2,2,2,2,2,2,3,6,3,2,3,3,3,3,4,2,4,3,15,4,4,3,3,10,3,11,3,3,3,9,10,3,3,2,2,2,2,2,0,683.txt
1,3,1,1,8,0,1,1,4,0,1,7,4,4,3,5,2,3,2,2,2,2,2,2,3,20,11,10,6,6,6,11,7,6,10,6,7,11,11,6,6,6,7,6,7,7,7,5,3,4,3,1,1,2,2,2,0,685.txt
1,3,1,1,8,0,1,1,4,0,1,7,5,3,5,3,2,3,2,2,2,2,2,2,3,20,11,10,6,14,11,6,7,6,7,6,17,11,11,6,4,4,4,4,4,4,4,4,11,4,4,2,2,2,2,2,0,687.txt
1,3,1,1,8,0,1,1,4,0,1,7,4,3,5,3,2,3,2,2,2,2,2,2,3,20,11,10,6,12,11,6,7,22,7,6,17,10,10,6,6,8,7,9,10,6,7,5,4,4,3,2,2,2,2,2,0,689.txt
1,3,1,1,8,0,1,1,4,0,1,7,5,5,5,5,2,3,2,2,2,2,2,2,0,5,0,7,7,7,7,7,8,7,8,7,8,7,7,7,7,7,6,7,6,6,1,1,1,4,2,2,2,2,1,2,1,691.txt
1,3,1,1,3,0,6,12,6,0,1,7,5,5,3,4,2,3,2,2,2,2,2,2,3,20,9,8,12,9,11,8,9,11,15,10,17,13,13,6,11,5,6,5,5,5,5,6,12,2,0,2,1,2,2,1,1,695.txt
1,1,1,1,8,0,1,1,4,0,1,7,5,3,5,3,2,3,2,2,2,2,2,2,3,20,9,8,10,9,9,8,9,10,12,6,16,9,9,6,6,7,7,5,5,5,5,6,12,4,4,2,2,2,1,1,1,696.txt
1,1,1,1,8,0,1,1,4,0,1,7,4,4,5,5,2,3,2,2,2,2,2,2,3,29,4,3,11,2,2,2,3,20,3,9,13,2,2,9,0,2,8,12,0,0,11,7,14,1,0,1,1,0,0,1,1,700.txt
5,1,1,1,7,0,7,1,4,21,1,7,5,3,5,4,2,3,2,4,2,2,2,2,3,4,4,3,8,8,2,2,3,17,3,2,9,2,2,8,8,2,8,8,8,8,10,0,13,5,1,0,0,0,0,0,1,703.txt
1,3,1,1,9,0,6,1,6,0,1,7,5,5,3,4,2,6,2,2,2,2,2,2,3,27,10,9,5,5,13,5,2,11,6,1,1,1,1,5,5,5,5,5,5,5,5,6,6,2,4,2,1,2,1,1,1,705.txt
1,1,1,1,8,0,1,1,4,0,1,7,10,3,5,3,2,3,2,2,2,2,2,2,3,20,8,7,7,7,7,7,8,7,8,7,8,7,7,6,6,7,6,7,6,6,6,6,11,4,4,2,2,2,2,2,1,706.txt
1,3,1,1,4,0,1,1,4,0,1,7,4,4,5,4,2,3,2,2,2,2,2,2,3,13,5,4,4,4,4,4,5,4,5,4,5,3,3,4,4,4,4,4,4,4,4,4,12,4,4,2,1,2,1,2,0,709.txt
1,3,1,1,8,0,1,1,4,0,1,7,5,5,5,4,2,3,2,2,2,2,2,2,3,20,11,10,6,6,11,11,14,6,15,6,17,6,13,6,6,6,7,6,10,6,7,5,12,4,4,2,2,1,1,2,0,711.txt
1,3,1,1,3,0,1,1,0,0,1,7,1,3,5,4,2,3,2,2,2,2,2,2,3,20,11,10,6,6,6,6,12,23,10,10,17,6,6,6,6,0,7,6,10,1,1,5,1,4,2,2,2,2,2,2,0,712.txt
3,1,3,3,8,0,1,1,4,2,3,1,10,4,4,4,3,3,2,4,2,2,4,2,4,29,19,11,8,2,8,9,16,16,9,12,9,14,2,8,8,2,8,8,8,8,9,0,13,7,2,1,1,0,0,0,2,713.txt
1,3,1,1,8,0,1,10,4,0,1,7,4,3,3,3,2,6,2,2,2,2,2,2,3,20,11,10,6,6,11,11,7,6,15,6,7,13,6,6,11,6,10,6,7,7,7,5,7,4,4,2,1,2,2,2,0,716.txt
1,3,1,1,10,0,1,1,4,0,1,7,4,5,5,5,2,3,2,2,2,2,2,2,3,20,11,10,6,15,6,6,14,13,12,6,16,3,3,7,4,4,4,4,4,5,4,4,0,4,0,2,1,2,2,2,1,722.txt
1,3,1,1,8,0,1,4,4,0,1,7,5,5,5,3,2,3,2,2,2,2,2,2,3,20,11,10,6,12,9,6,13,12,12,6,16,13,13,6,11,6,7,6,10,7,6,6,11,4,4,2,2,2,1,2,0,724.txt
1,3,1,1,4,0,6,1,4,0,1,7,4,4,3,3,2,3,2,2,2,4,2,2,3,20,13,12,6,6,11,11,12,23,10,10,7,6,1,6,11,1,1,1,1,1,1,1,1,4,2,1,1,2,2,2,0,727.txt
5,1,1,1,8,0,1,1,4,0,1,7,4,4,5,3,2,3,2,4,2,2,2,2,3,4,4,3,8,2,2,2,3,20,3,9,9,2,2,8,0,2,8,8,8,8,8,7,13,6,1,1,1,0,0,0,2,728.txt
1,1,1,1,8,0,1,1,4,0,1,7,5,3,5,3,2,3,2,2,2,2,2,2,3,20,7,6,10,9,11,8,9,12,12,6,16,9,6,6,11,8,7,9,10,7,5,6,11,4,4,2,2,2,2,1,1,732.txt
1,1,1,1,10,0,1,1,4,0,1,7,5,3,5,4,2,3,2,2,2,2,2,2,3,6,9,8,9,10,10,3,4,14,11,11,14,7,7,11,10,9,9,11,3,3,12,3,10,3,3,2,2,2,2,2,1,734.txt
4,1,1,1,8,0,1,1,4,0,1,7,5,3,5,3,2,3,2,2,2,2,2,2,3,18,4,3,8,2,2,2,3,20,3,9,10,2,2,8,0,2,8,8,8,8,8,0,0,1,1,0,0,0,0,1,1,735.txt
1,3,1,1,8,0,6,1,4,0,1,7,10,5,5,3,2,3,2,2,2,2,2,2,3,13,5,4,4,4,4,4,5,4,5,4,5,3,3,4,4,4,4,4,4,4,4,4,12,0,0,2,1,2,1,2,1,737.txt
4,1,1,1,10,0,1,1,4,0,1,7,4,4,5,3,2,3,2,2,2,2,2,2,3,29,4,3,8,2,2,2,11,20,3,9,10,2,2,9,0,2,8,8,8,8,8,0,9,1,1,1,1,0,0,0,2,738.txt
1,3,1,1,19,0,6,1,6,0,1,7,4,4,5,4,2,3,2,2,2,2,2,2,3,20,11,10,6,14,6,11,7,13,7,6,7,10,8,6,6,6,7,6,7,7,7,5,0,0,0,1,1,2,2,2,1,741.txt
1,3,1,1,8,0,6,1,4,0,1,7,5,4,5,3,2,3,2,2,2,2,2,2,3,20,11,10,6,12,11,6,14,22,12,6,16,3,3,4,4,4,4,4,4,4,4,4,12,4,4,2,1,1,1,2,0,743.txt
1,1,1,1,10,0,4,1,6,0,1,7,4,4,5,3,2,3,2,2,2,2,2,2,3,29,4,3,11,8,2,2,3,20,3,9,18,2,2,9,0,2,8,12,0,0,11,0,14,1,0,1,1,0,0,0,1,747.txt
3,1,3,3,8,0,1,1,4,2,3,1,5,5,4,3,3,3,2,4,2,2,4,2,4,29,19,11,8,8,8,9,16,16,9,12,9,14,2,8,8,2,8,8,8,8,9,8,13,7,5,3,3,0,0,0,2,748.txt
1,3,1,1,8,0,7,15,4,0,1,7,4,3,5,3,2,3,2,2,2,2,2,2,3,20,11,10,6,12,11,6,7,22,7,6,17,13,7,6,11,7,10,9,10,6,6,5,11,4,4,2,2,2,2,2,0,751.txt
1,3,1,1,3,0,1,3,4,0,1,7,5,5,3,5,2,4,2,2,2,3,2,2,3,20,13,12,12,14,11,11,12,5,1,10,7,13,6,6,11,5,1,1,1,1,1,1,1,2,2,2,2,2,2,1,1,755.txt
5,1,1,1,3,0,6,7,9,0,1,7,5,5,5,4,2,3,2,4,2,5,2,2,3,0,4,3,8,2,2,2,3,18,3,9,9,2,2,8,0,2,8,8,8,8,8,0,3,6,1,0,0,0,0,0,2,756.txt
1,1,1,1,8,0,7,15,4,0,1,7,4,3,5,3,2,3,2,2,2,2,2,2,3,29,4,3,8,2,2,2,3,20,3,9,10,2,2,10,0,2,8,10,0,8,11,7,9,1,1,0,0,0,0,1,1,760.txt
1,3,1,1,8,0,1,11,4,0,1,7,4,5,5,5,2,3,2,2,2,2,2,2,3,6,3,2,3,3,3,10,4,2,4,3,4,8,8,3,3,3,11,1,1,1,1,1,1,3,2,2,2,2,2,2,0,765.txt
1,3,1,1,3,0,1,1,4,0,1,7,4,5,3,3,2,3,2,2,2,2,2,2,3,20,11,10,6,6,6,11,14,23,15,6,7,6,13,6,6,6,7,6,7,7,7,5,7,0,0,2,2,2,2,2,0,766.txt
1,3,1,1,8,0,1,1,4,0,1,7,4,4,5,3,2,3,2,2,2,2,2,2,3,20,11,10,6,12,11,6,7,22,7,6,17,6,9,6,11,7,6,9,10,6,6,5,11,4,4,2,1,2,2,2,0,768.txt
5,1,1,1,8,0,6,9,6,0,1,7,10,4,5,4,2,3,2,4,2,2,2,2,3,2,4,3,8,2,2,2,11,18,3,9,9,2,2,8,0,2,8,8,8,8,8,7,13,6,1,1,1,0,0,0,2,771.txt
1,1,1,1,8,0,1,1,4,0,1,7,4,5,5,5,2,3,2,2,2,2,2,2,3,20,9,8,6,9,9,8,9,10,12,6,16,13,9,6,11,8,7,9,10,5,4,6,11,4,4,2,2,2,2,2,0,772.txt
1,3,1,1,8,0,1,1,4,0,1,7,10,3,3,3,2,3,2,2,2,2,2,2,3,20,11,10,6,14,11,11,7,6,15,6,7,8,8,6,6,6,7,6,7,6,7,5,11,4,3,2,2,2,2,2,0,773.txt
5,1,1,1,20,0,5,1,8,0,1,7,4,4,5,4,2,3,2,4,2,2,2,2,3,29,4,3,8,2,2,2,3,20,3,2,9,2,2,8,0,2,8,8,8,8,8,0,13,0,0,1,1,0,0,0,1,775.txt
4,1,1,1,8,0,1,1,4,0,1,7,5,5,5,5,2,3,2,2,2,2,2,2,3,20,7,6,6,9,9,8,9,12,12,6,16,6,13,6,11,6,4,4,4,4,4,4,11,4,4,2,2,2,2,2,0,777.txt
1,1,1,1,8,0,1,1,4,0,1,7,4,5,5,4,2,3,2,2,2,2,2,2,3,29,4,3,8,8,2,2,3,18,3,9,10,2,2,8,0,2,8,8,8,8,8,7,3,1,2,0,0,0,0,1,1,779.txt
1,3,1,1,8,0,1,1,4,0,1,7,5,3,5,3,2,3,2,2,2,2,2,2,3,20,11,10,6,6,11,11,13,6,7,6,17,11,11,6,6,8,7,9,10,7,7,5,6,4,3,2,2,2,2,2,0,781.txt
1,3,1,1,8,0,1,1,4,0,1,7,4,4,5,3,2,3,2,2,2,2,2,2,3,20,11,10,6,14,11,11,7,6,7,6,17,9,9,6,6,7,7,9,10,6,6,5,11,4,4,2,1,2,2,2,0,785.txt
1,3,1,1,8,0,1,1,4,0,1,7,5,3,5,3,2,3,2,2,2,2,2,2,3,6,3,2,3,3,3,3,4,2,4,3,4,12,12,3,3,3,3,3,3,3,12,3,10,3,3,2,2,2,2,2,0,787.txt
1,1,1,1,7,0,7,1,4,0,1,7,4,4,5,4,2,3,2,2,2,2,2,2,3,29,4,3,11,2,2,2,3,20,3,9,10,2,2,10,0,2,8,12,0,0,11,0,9,1,0,1,1,0,0,1,1,790.txt
1,1,1,1,8,0,6,1,6,0,1,7,4,4,5,4,2,3,2,2,2,2,2,2,3,20,7,6,10,9,11,7,8,7,8,7,8,6,9,7,7,7,6,7,6,6,5,6,6,0,0,1,1,2,2,2,1,792.txt
4,1,1,1,8,0,1,1,4,0,1,7,10,4,5,3,2,3,2,4,2,2,2,2,3,29,4,3,8,8,2,2,3,20,3,9,10,2,2,8,0,2,8,8,8,8,8,0,13,1,1,0,1,0,0,0,2,796.txt
1,3,1,1,8,0,1,1,4,0,1,7,4,3,5,3,2,3,2,2,2,2,2,2,3,20,11,10,6,12,11,6,7,22,12,6,16,13,7,6,11,7,7,7,10,6,6,6,11,4,4,2,2,2,2,2,0,800.txt
1,3,1,1,8,0,1,1,4,0,1,7,4,3,5,3,2,3,2,2,2,2,2,2,3,20,11,10,10,15,11,6,7,13,15,6,17,7,7,6,6,7,7,9,10,6,5,6,2,4,0,2,2,2,2,1,1,802.txt
5,1,2,3,10,0,1,1,4,3,1,1,5,5,5,4,5,3,2,4,2,2,2,2,4,29,12,3,8,8,8,9,16,18,9,12,9,14,2,8,9,2,8,8,8,8,9,1,1,7,5,3,3,0,0,1,1,806.txt
1,3,1,1,8,0,1,1,4,0,1,7,4,4,5,3,2,3,2,2,2,2,2,2,3,20,11,10,6,6,11,11,7,6,15,6,17,11,10,6,11,8,7,9,10,7,7,5,11,0,0,1,1,2,2,2,0,807.txt
1,3,1,1,10,0,1,1,4,0,1,7,4,4,5,3,2,3,2,2,2,2,2,2,3,0,5,4,4,4,4,4,5,4,5,4,5,3,3,4,4,4,4,4,4,4,4,4,11,4,0,1,1,2,2,2,0,810.txt
1,3,1,1,8,0,1,1,4,0,1,7,4,4,5,3,2,3,2,2,2,2,2,2,3,20,11,10,6,6,11,11,7,6,7,6,7,8,8,6,6,6,7,6,7,7,7,5,0,0,0,1,1,2,2,2,0,813.txt
1,3,1,1,9,0,1,18,4,29,1,7,10,5,3,4,2,3,2,2,2,2,2,2,3,27,1,1,1,5,13,5,15,11,6,5,6,5,5,5,5,5,1,2,1,1,1,1,1,2,0,2,1,2,2,1,1,816.txt
1,3,1,1,10,0,1,1,4,0,1,7,4,4,3,3,2,3,2,2,2,2,2,2,3,20,11,10,6,14,6,11,7,13,10,10,7,8,8,6,6,8,10,9,7,1,1,5,2,4,2,1,1,2,2,2,1,817.txt
1,3,1,1,8,0,1,3,4,0,1,7,4,4,5,3,2,3,2,2,2,2,2,2,3,20,11,10,6,6,11,11,2,6,15,10,7,7,7,1,1,7,7,9,6,7,6,5,5,4,4,1,1,1,1,2,0,818.txt
1,3,1,1,3,0,8,1,7,0,1,7,4,4,3,3,2,3,0,0,0,0,0,0,0,20,0,10,6,6,6,11,7,23,15,6,7,9,6,6,6,6,10,6,7,7,7,5,7,0,0,1,1,2,2,2,0,821.txt
1,1,1,1,7,0,6,1,6,0,1,7,4,4,5,3,2,3,2,2,2,2,2,2,3,18,4,3,8,8,2,2,3,20,3,9,18,2,2,9,0,2,8,10,8,8,11,0,9,1,1,1,1,0,1,0,1,824.txt
1,3,1,1,8,0,1,1,4,0,1,0,5,1,2,2,0,0,0,0,0,0,0,0,0,20,0,10,6,12,11,6,7,22,12,6,16,6,13,6,6,6,10,6,10,6,6,5,11,4,2,2,2,2,2,2,0,827.txt
1,1,1,1,8,0,1,1,4,0,1,7,4,3,5,3,2,3,2,2,2,2,2,2,3,4,18,9,5,13,12,5,15,15,14,5,6,5,5,5,5,5,5,5,5,5,5,6,2,2,4,2,2,2,2,1,1,831.txt
1,3,1,1,8,0,1,1,4,0,1,7,5,3,5,3,2,3,2,2,2,2,2,2,3,20,11,10,6,14,11,11,7,13,15,6,7,9,13,6,6,8,7,9,7,7,7,5,3,4,2,2,2,2,2,2,1,832.txt
1,3,1,1,8,0,1,1,4,0,1,7,4,3,5,3,2,3,2,2,2,2,2,2,3,20,11,10,6,6,11,11,7,6,7,6,17,6,9,6,6,7,7,7,10,6,6,5,11,4,4,2,2,2,2,2,0,834.txt
1,3,1,1,8,0,1,1,4,0,1,7,5,3,5,4,2,3,2,2,2,2,2,2,3,20,7,6,6,9,9,8,9,12,12,6,16,6,9,6,6,7,6,9,6,6,6,6,4,4,4,2,2,2,2,2,0,836.txt
1,3,1,1,8,0,1,1,4,0,1,7,4,4,5,5,2,3,2,2,2,2,2,2,3,20,11,10,6,15,11,6,7,6,15,6,17,6,13,6,6,6,7,9,10,7,6,5,4,4,4,2,1,2,2,2,0,839.txt
1,1,1,1,8,0,1,1,4,0,1,7,4,5,5,3,2,3,2,2,2,2,2,2,3,28,18,9,5,13,12,5,15,11,14,5,6,5,5,5,5,5,5,5,5,5,5,6,6,4,2,2,2,2,1,1,1,842.txt
1,3,1,1,8,0,1,1,4,0,1,7,4,4,5,3,2,3,2,2,2,2,2,2,3,6,3,2,3,3,3,3,4,2,4,3,4,11,11,3,3,3,11,3,9,9,3,3,10,0,0,1,1,2,2,2,0,847.txt
1,3,1,1,8,0,1,3,4,0,1,7,4,3,3,3,2,3,2,2,2,2,2,2,3,6,16,2,3,3,3,3,4,2,13,3,4,12,1,3,3,10,3,3,9,3,3,9,4,3,2,2,2,2,2,2,0,851.txt
5,1,1,3,8,0,1,1,4,27,1,10,5,3,5,3,5,3,2,4,2,2,2,2,4,29,12,3,8,8,2,2,10,18,9,8,9,2,2,8,8,2,8,8,8,8,9,7,13,7,5,3,3,0,1,0,1,852.txt
1,3,1,1,8,0,1,1,4,0,1,7,5,5,5,5,2,3,2,2,2,2,2,2,3,20,11,10,12,14,6,11,12,9,15,10,7,6,6,6,6,5,7,5,5,5,5,5,2,4,4,2,1,2,1,1,1,855.txt
4,1,1,1,8,0,1,15,4,0,1,7,5,5,5,4,2,3,2,2,2,2,2,2,3,5,4,3,8,2,2,2,3,20,3,9,10,2,2,9,0,2,8,8,8,8,8,7,0,1,1,0,0,0,0,0,2,857.txt
1,3,1,1,8,0,1,3,4,22,1,7,4,3,5,3,2,3,2,2,2,2,2,2,3,6,3,2,3,3,3,3,4,2,13,3,4,4,4,3,3,10,3,3,9,3,3,9,10,3,3,2,2,2,2,1,1,859.txt
1,1,1,1,8,0,3,1,5,0,1,7,4,4,5,3,2,3,2,2,2,2,2,2,3,29,4,3,8,8,2,2,3,20,3,9,13,2,2,9,0,2,8,10,0,8,11,0,9,0,0,1,1,0,0,1,1,861.txt
1,3,1,1,8,0,6,18,6,0,1,7,5,5,3,4,2,3,2,2,2,2,2,2,3,20,11,10,6,6,11,11,13,23,15,6,7,8,8,6,11,6,7,6,7,4,4,5,12,4,4,2,2,2,2,2,0,864.txt
5,1,1,1,8,0,1,1,4,21,1,7,4,4,5,5,2,3,2,0,0,0,0,0,0,18,0,3,8,2,2,2,3,18,3,2,9,2,2,8,8,2,8,8,8,8,10,0,13,5,1,1,1,0,0,0,2,866.txt
5,1,1,1,8,0,7,1,4,0,1,7,10,3,5,4,2,3,2,4,2,2,2,2,3,29,4,3,8,8,2,2,3,20,3,9,9,2,2,8,0,2,8,8,8,1,1,8,2,6,2,0,0,0,0,1,1,868.txt
1,3,1,1,8,0,1,1,4,0,1,7,5,3,3,3,2,3,2,2,2,2,2,2,3,20,11,10,6,6,6,11,7,6,15,6,7,6,9,6,6,6,10,6,7,6,7,5,11,4,4,2,2,2,2,2,0,870.txt
1,1,1,1,8,0,6,1,4,0,1,7,4,4,5,3,2,3,2,2,2,2,2,2,3,29,4,3,8,2,2,2,11,20,3,9,10,2,2,9,0,2,8,10,0,8,11,0,9,1,1,1,1,0,0,1,1,872.txt
1,3,1,1,10,0,6,1,8,0,1,7,4,4,5,4,2,3,2,2,2,2,2,2,3,0,5,4,4,4,4,4,5,4,5,4,5,3,3,4,4,4,4,4,4,4,4,4,12,0,0,1,1,1,1,2,0,874.txt
1,3,1,1,8,0,1,1,4,0,1,7,10,4,5,3,2,3,2,2,2,2,2,2,3,20,11,10,6,6,11,11,7,6,7,6,7,9,6,6,6,8,7,9,7,7,4,5,11,4,4,2,1,2,2,2,0,879.txt
1,3,1,1,10,0,1,1,4,0,1,7,4,3,5,3,2,3,2,2,2,2,2,2,3,6,3,2,3,3,3,3,4,2,4,3,4,4,4,3,3,10,3,11,9,3,3,3,2,0,0,2,1,2,2,2,0,882.txt
1,3,1,1,4,0,1,1,4,0,1,7,4,5,5,4,2,3,2,2,2,2,2,2,3,20,11,10,6,6,11,11,14,23,10,10,7,6,13,6,6,8,10,9,6,7,4,5,4,4,0,2,1,2,1,2,0,884.txt
1,3,1,1,8,0,1,12,4,0,1,7,4,5,5,3,2,3,2,2,2,2,2,2,3,20,11,10,6,15,11,6,14,6,7,6,17,10,10,6,11,8,7,9,10,7,4,5,0,4,4,2,2,2,1,2,0,885.txt
1,3,1,1,8,0,1,1,4,0,1,7,5,5,3,3,2,3,2,2,2,2,2,2,3,20,11,10,6,6,11,11,7,6,7,6,7,10,10,6,6,6,7,6,4,4,4,4,12,4,4,2,2,2,2,2,0,886.txt
1,1,1,1,8,0,1,1,4,0,1,7,10,5,5,3,2,3,2,2,2,2,2,2,3,29,4,3,11,2,2,2,11,10,3,9,12,2,2,2,0,2,8,12,0,0,0,0,14,1,1,0,0,0,0,0,1,889.txt
1,3,1,1,4,0,5,1,6,0,1,7,10,4,3,4,2,3,2,2,2,2,2,2,3,20,11,10,6,14,11,11,13,23,7,6,7,9,6,6,6,6,7,9,7,7,7,5,7,4,0,1,1,2,2,2,0,891.txt
1,1,1,1,10,0,1,1,0,0,1,7,4,3,5,3,2,3,2,2,2,2,2,2,3,29,4,3,8,2,2,2,3,17,3,9,13,2,2,9,0,2,8,10,0,8,11,0,9,1,1,0,0,0,0,0,0,893.txt
1,3,1,1,8,0,1,12,4,0,1,7,4,5,5,3,2,3,2,2,2,2,2,2,3,13,5,4,4,4,4,4,5,4,5,4,5,3,3,4,4,4,4,5,5,5,5,4,12,4,4,2,2,2,1,2,1,896.txt
1,1,1,1,8,0,1,1,4,0,1,7,4,5,5,3,2,3,2,2,2,2,2,2,3,2,4,1,1,2,2,2,3,19,3,9,10,2,2,8,0,2,8,8,8,8,8,0,9,1,1,0,1,0,0,1,1,900.txt
1,1,1,1,0,0,1,1,0,0,1,7,0,0,5,3,2,3,2,2,2,2,2,2,3,7,4,3,8,8,2,2,3,20,3,9,10,2,2,10,0,0,8,10,0,8,11,0,8,1,1,0,0,0,0,1,1,902.txt
1,3,1,1,8,0,6,17,6,0,1,7,2,4,3,4,2,2,2,2,2,4,2,2,3,20,13,12,12,14,11,11,2,5,10,10,7,13,13,1,1,1,1,1,1,1,1,1,1,0,0,1,1,2,2,1,1,905.txt
1,3,1,1,8,0,1,1,4,0,1,7,4,4,5,3,2,3,2,2,2,2,2,2,3,20,11,10,6,14,11,6,14,6,15,6,17,9,9,6,6,8,7,9,10,6,6,5,4,4,0,2,1,2,1,2,0,907.txt
1,3,1,1,8,0,1,1,4,0,1,7,4,3,3,3,2,3,2,2,2,2,2,2,3,20,11,10,10,14,11,11,7,13,15,6,7,8,8,6,6,8,7,9,7,1,1,1,2,4,3,2,2,2,2,2,1,909.txt
1,3,1,1,8,0,1,1,4,0,1,7,5,5,5,3,2,3,2,2,2,2,2,2,3,13,5,4,4,4,4,4,5,4,5,4,5,3,3,4,4,4,4,4,4,4,4,4,12,4,4,2,2,1,1,2,0,911.txt
1,3,1,1,10,0,1,1,0,0,1,7,4,3,3,3,2,3,2,2,2,2,2,2,3,20,11,10,6,14,6,11,7,13,7,6,7,8,8,6,6,0,10,6,7,7,7,5,11,4,4,2,2,2,2,2,1,914.txt
1,1,1,1,8,0,1,3,4,4,1,7,4,4,5,4,2,3,2,2,2,3,2,2,3,29,4,3,2,8,2,2,3,20,3,9,10,2,2,8,0,2,0,0,2,2,2,1,1,2,2,1,1,0,0,1,1,917.txt
1,1,1,1,8,0,1,1,4,0,1,7,4,5,5,3,2,3,2,2,2,2,2,2,3,29,4,3,11,8,2,2,3,20,3,9,10,2,2,9,0,2,8,12,0,0,11,7,9,1,2,0,0,0,0,1,1,922.txt
1,3,1,1,8,0,1,1,4,0,1,7,5,5,5,3,2,3,2,2,2,2,2,2,3,6,15,14,9,11,3,3,4,2,11,3,14,9,9,3,10,9,9,1,1,1,1,1,1,3,2,2,2,2,2,2,0,924.txt
1,3,1,1,10,0,1,1,0,0,1,7,4,4,5,3,2,3,2,2,2,2,2,2,3,20,11,10,6,12,6,6,8,7,8,7,8,7,7,6,6,7,7,6,10,6,6,5,11,4,4,1,1,2,2,2,0,925.txt
1,1,1,1,8,0,1,1,4,0,1,7,4,5,5,3,2,3,2,2,2,2,2,2,3,29,4,3,11,8,2,2,3,20,3,9,13,2,2,9,0,2,8,12,0,0,11,0,14,1,1,0,1,0,1,1,1,926.txt
4,1,1,1,8,0,1,1,4,15,1,7,5,3,5,3,2,3,2,4,2,2,2,2,3,29,4,3,8,2,2,2,3,20,3,9,10,2,2,8,0,2,8,8,8,8,8,0,13,1,1,0,0,0,0,1,1,928.txt
1,1,1,1,8,0,1,1,4,0,1,7,4,3,5,3,2,3,2,2,2,3,2,2,3,29,4,3,8,8,2,2,3,20,3,9,10,2,2,9,0,2,8,8,8,1,1,0,2,1,1,0,0,0,0,0,1,930.txt
1,3,1,1,8,0,1,1,4,0,1,7,5,3,5,4,2,3,2,2,2,2,2,2,3,20,11,10,6,6,6,11,12,23,10,10,7,6,13,6,6,6,7,4,4,7,4,4,5,4,4,2,2,2,1,2,0,932.txt
2,0,0,2,5,0,1,14,0,3,1,7,0,0,0,1,1,1,1,1,1,1,1,1,1,20,2,0,0,0,0,0,0,0,0,0,17,0,0,1,1,0,1,1,1,1,1,1,1,2,2,1,1,2,2,1,1,935.txt
5,1,1,1,8,0,1,1,4,0,1,7,5,5,5,3,2,3,2,4,2,2,2,2,0,1,0,3,8,2,2,2,3,20,3,2,9,2,2,8,8,2,8,8,8,8,10,7,13,5,1,0,0,0,0,0,2,940.txt
1,3,1,1,8,0,1,1,4,0,1,7,5,3,5,3,2,3,2,2,2,2,2,2,3,20,11,10,6,12,11,6,7,22,12,10,16,7,7,6,6,7,6,7,10,6,6,5,4,4,4,2,2,2,2,2,0,942.txt
1,3,1,1,8,0,1,3,4,0,1,7,5,3,5,3,2,3,2,2,2,3,2,2,3,20,9,8,12,9,11,1,1,11,1,10,17,13,1,7,7,1,1,7,5,1,1,1,1,2,2,2,2,2,1,1,1,944.txt
1,3,1,1,8,0,1,1,4,0,1,7,4,3,5,3,2,3,2,2,2,2,2,2,3,20,11,10,6,12,11,6,7,22,12,6,16,7,7,6,6,7,7,9,10,6,6,6,11,4,4,2,2,2,2,2,0,946.txt
1,1,1,1,8,0,1,1,4,0,1,7,10,5,5,3,2,3,2,2,2,2,2,2,3,20,9,8,10,9,11,8,9,10,12,6,16,6,9,6,6,8,7,9,10,7,6,6,12,4,4,2,2,2,2,1,1,949.txt
1,3,1,1,4,0,1,1,4,0,1,7,4,5,3,5,2,3,2,2,2,2,2,2,3,20,11,10,6,6,6,11,13,23,7,6,7,6,6,6,6,6,10,6,7,7,7,5,11,4,4,2,2,2,2,2,0,951.txt
4,1,1,1,8,0,5,1,6,0,1,7,4,4,5,3,2,3,2,2,2,2,2,2,3,29,4,3,8,8,2,2,3,18,3,9,10,2,2,10,0,2,8,8,8,8,8,7,13,0,0,1,1,1,1,0,1,954.txt
1,3,1,2,0,0,1,1,0,0,1,7,0,0,0,3,2,3,2,2,2,2,2,2,3,20,11,10,6,14,6,11,7,13,15,6,7,9,6,6,6,0,10,9,7,7,7,5,8,4,2,2,2,2,2,2,1,956.txt
1,1,1,1,10,0,1,1,0,0,1,7,10,3,5,3,2,3,2,2,2,2,2,2,3,29,4,3,8,8,2,2,3,20,3,2,10,2,2,10,0,2,8,10,1,1,1,0,2,1,2,0,0,0,0,1,1,959.txt
1,1,1,1,10,0,1,1,4,0,1,7,5,5,5,3,2,3,2,2,2,2,2,2,3,20,7,6,6,9,9,8,9,12,12,6,16,10,10,6,6,6,7,6,10,6,7,6,11,4,4,2,2,2,2,2,0,961.txt
1,3,1,1,8,0,1,1,4,0,1,7,4,3,5,3,2,3,2,2,2,2,2,2,3,20,11,10,6,12,6,6,7,22,12,6,17,10,10,6,6,7,7,6,10,6,6,5,11,4,3,2,1,2,2,2,0,962.txt
1,3,1,1,8,0,1,1,4,0,1,7,4,4,5,3,2,3,2,2,2,2,2,2,3,20,11,10,6,14,11,11,14,6,7,6,7,6,9,6,6,7,7,6,6,4,4,5,12,4,0,1,1,1,1,2,0,964.txt
1,3,1,1,8,0,6,18,6,0,1,7,4,4,5,3,2,3,2,2,2,2,2,2,3,20,11,10,6,14,11,6,12,6,10,6,7,13,9,6,11,6,7,7,10,6,7,5,3,4,0,1,1,2,1,2,0,966.txt
1,3,1,1,8,0,6,1,4,0,1,7,4,4,5,5,2,3,2,2,2,2,2,2,3,20,11,10,6,14,11,11,12,6,15,6,7,7,7,6,11,7,7,9,10,6,6,5,12,4,0,1,1,2,2,2,0,968.txt
1,3,1,1,0,0,1,1,0,0,1,7,1,3,3,3,2,3,2,2,2,2,2,2,3,6,16,2,3,3,3,3,4,2,4,3,4,11,11,3,3,0,11,3,3,9,3,3,10,3,3,2,2,2,2,2,0,970.txt
1,3,1,1,8,0,1,1,4,0,1,7,4,4,3,3,2,3,2,2,2,2,2,2,3,20,11,10,6,6,11,11,7,23,10,6,7,11,10,6,6,6,7,6,7,7,7,5,11,4,4,1,1,2,2,2,0,974.txt
1,3,1,1,8,0,1,1,4,0,1,7,4,3,5,3,2,3,2,2,2,2,2,2,3,20,11,10,6,12,9,6,7,22,12,6,16,7,7,6,6,7,7,6,10,6,6,6,11,4,3,2,2,2,2,2,0,975.txt
1,3,1,1,8,0,1,15,4,0,1,7,5,3,5,3,2,3,2,2,2,3,2,2,3,20,9,8,12,9,11,8,2,10,1,10,16,13,1,1,1,1,1,1,1,1,1,1,1,4,2,2,2,1,1,1,1,979.txt
1,3,1,1,3,0,4,1,6,0,1,7,5,3,5,3,2,3,2,2,2,4,2,2,3,20,13,12,6,12,9,12,2,22,2,1,1,1,1,6,1,1,1,1,1,1,1,1,1,4,2,2,1,2,2,2,0,981.txt
1,1,1,1,8,0,1,12,4,0,1,7,4,4,5,3,2,3,2,2,2,2,2,2,3,18,4,3,8,2,2,2,3,20,3,9,10,2,2,9,0,2,8,8,8,8,8,7,9,1,0,1,1,0,0,0,1,987.txt
1,3,1,1,8,0,6,1,4,0,1,7,10,5,3,4,2,3,2,2,2,2,2,2,3,20,11,10,6,6,11,11,14,23,15,10,7,13,13,6,11,6,7,6,7,7,6,5,2,4,2,2,2,2,1,2,0,989.txt
1,3,1,1,2,1,0,2,2,1,2,2,4,1,1,1,0,0,0,0,0,0,0,0,0,27,0,9,5,13,12,5,15,17,14,5,6,5,5,5,5,5,1,1,1,1,1,1,2,2,4,2,2,2,2,1,1,994.txt
1,3,1,1,8,0,1,3,4,0,1,7,4,4,5,3,2,3,2,2,2,2,2,2,3,20,11,10,6,6,11,11,7,6,7,6,7,8,8,6,11,6,7,6,4,4,4,4,7,4,4,1,1,2,2,2,0,996.txt
1,1,1,1,8,0,1,1,4,0,1,7,10,5,5,5,2,3,2,2,2,2,2,2,3,8,4,3,8,2,2,2,11,14,3,9,11,2,2,9,0,2,8,10,0,8,0,7,0,1,1,0,0,0,0,2,1,998.txt
1,3,1,1,8,0,6,1,6,0,1,7,4,4,5,3,2,3,2,2,2,2,2,2,3,6,3,2,3,3,3,10,4,2,13,3,4,11,11,3,3,10,11,11,9,9,3,9,2,0,0,1,1,2,2,2,0,1002.txt
1,3,1,1,8,0,7,3,4,0,1,7,5,3,3,3,2,3,2,2,2,2,2,2,3,20,11,10,6,14,11,11,13,6,10,6,7,9,6,6,11,8,10,9,7,1,1,1,2,4,2,2,2,2,2,2,0,1005.txt
1,3,1,1,8,0,1,1,4,0,1,7,5,3,5,4,2,3,2,2,2,2,2,2,3,6,15,2,9,3,3,3,4,2,4,3,15,10,10,11,10,9,9,11,9,3,12,3,6,3,2,2,2,2,2,1,1,1008.txt
1,1,1,1,3,0,1,1,4,0,1,7,5,5,5,4,2,3,2,2,2,2,2,2,3,9,4,3,11,8,2,2,11,10,3,2,11,2,2,9,0,2,8,12,0,0,0,0,1,1,1,0,0,0,0,1,1,1010.txt
1,3,1,1,8,0,1,1,4,0,1,7,10,3,5,3,2,3,2,2,2,2,2,2,3,20,11,10,6,15,11,6,12,12,12,6,17,9,9,6,6,8,7,9,10,6,7,1,5,4,2,2,2,2,2,2,1,1013.txt
1,3,1,1,10,0,1,1,0,0,1,7,4,4,5,3,2,3,2,2,2,2,2,2,3,20,11,10,6,12,6,6,14,6,10,10,17,6,9,6,6,7,7,9,10,6,6,5,6,0,0,1,1,2,2,2,0,1015.txt
1,3,1,1,3,0,4,15,6,0,1,7,4,4,5,3,2,3,2,2,2,2,2,2,3,6,15,14,9,11,3,10,2,2,4,3,15,4,4,11,3,9,9,11,9,1,1,3,2,0,0,1,1,2,1,2,1,1018.txt
1,3,1,1,24,0,6,1,6,0,1,7,12,5,3,4,2,7,2,2,2,2,2,2,3,25,1,1,1,5,13,5,6,5,6,5,6,5,1,5,5,5,5,5,5,1,1,1,2,2,2,2,1,2,2,1,1,1020.txt
1,3,1,1,3,0,1,1,4,0,1,7,4,5,3,5,2,3,2,2,2,3,2,2,3,20,11,12,6,6,11,11,12,23,10,10,7,6,13,6,6,6,10,2,2,2,2,1,1,4,2,2,2,2,2,2,0,1022.txt
1,3,1,1,8,0,1,3,4,0,1,7,5,3,5,3,2,3,2,2,2,2,2,2,3,20,11,10,6,6,11,11,14,6,15,10,7,13,9,6,11,7,7,6,6,6,6,5,11,4,4,2,2,1,1,2,0,1025.txt
1,3,1,2,23,0,1,1,0,0,1,7,0,0,0,4,2,3,2,0,0,0,0,0,0,20,0,10,6,14,6,11,13,13,15,10,7,6,13,6,6,0,7,6,7,6,6,5,5,4,2,2,2,2,2,2,1,1027.txt
1,3,1,1,8,0,6,1,6,0,1,7,4,4,3,5,2,8,2,2,2,4,2,2,3,20,11,10,6,6,11,11,12,6,10,10,7,6,13,6,6,6,10,6,7,7,1,1,2,4,2,1,1,2,2,2,0,1030.txt
1,3,1,1,8,0,1,1,4,0,1,7,4,4,5,3,2,3,2,2,2,2,2,2,3,20,11,10,10,14,11,12,7,13,10,6,17,12,4,6,6,7,7,9,7,1,1,5,2,4,2,1,1,2,2,1,1,1036.txt
1,3,1,1,8,0,1,1,4,0,1,7,4,3,3,3,2,3,2,2,2,2,2,2,3,20,11,10,6,14,11,11,7,6,7,6,7,9,6,6,6,8,7,9,7,7,7,5,11,4,4,2,2,2,2,2,0,1041.txt
1,3,1,1,8,0,1,3,4,0,1,7,5,3,5,3,2,3,2,2,2,3,2,2,3,20,11,10,10,14,11,11,8,7,8,7,8,13,9,7,7,7,6,7,6,6,6,1,1,4,2,2,2,1,1,2,1,1043.txt
1,3,1,1,4,0,1,20,4,0,1,7,4,4,5,3,2,3,2,2,2,2,2,2,3,6,3,2,3,3,3,3,4,2,13,3,4,9,6,3,3,10,11,3,9,9,3,9,7,3,3,2,1,2,2,2,0,1045.txt
1,3,1,1,0,0,1,1,0,0,1,7,1,4,5,3,2,3,2,2,2,2,2,2,3,6,15,14,9,11,10,3,4,2,11,3,14,4,12,11,3,0,9,11,3,3,12,3,10,3,3,1,1,2,2,2,1,1046.txt
1,3,1,1,10,0,1,1,4,0,1,7,4,4,5,4,2,3,2,2,2,2,2,2,3,20,11,10,6,6,6,12,12,22,10,1,1,1,1,1,1,1,1,2,1,1,1,1,1,0,0,1,1,2,2,2,0,1048.txt
1,3,1,1,8,0,1,3,4,0,1,7,4,3,5,3,2,3,2,2,2,2,2,2,3,20,11,10,10,14,11,11,12,13,10,10,7,9,7,6,11,7,7,9,7,6,6,5,1,4,2,2,2,2,2,2,1,1051.txt
1,3,1,1,8,0,1,1,4,0,1,7,4,5,5,3,2,3,2,2,2,2,2,2,3,20,11,10,6,15,11,6,7,22,12,6,17,3,3,6,4,4,4,4,4,4,4,4,12,4,4,2,2,2,2,2,0,1054.txt
1,3,1,1,8,0,1,15,4,0,1,7,4,5,5,3,2,3,2,2,2,3,2,2,3,20,13,12,6,12,1,12,2,6,1,1,1,1,1,1,1,7,1,1,1,1,1,1,1,4,2,2,1,2,1,2,0,1057.txt
1,3,1,1,8,0,1,1,4,0,1,7,5,5,5,3,2,3,2,2,2,2,2,2,3,20,11,10,6,14,11,11,14,13,7,6,7,6,13,6,6,6,7,6,4,4,4,4,0,4,4,2,2,2,1,2,1,1059.txt
1,3,1,1,7,0,1,1,4,0,1,7,5,3,3,3,2,3,2,2,2,2,2,2,3,6,3,2,3,3,3,3,4,2,13,3,4,12,11,3,3,10,11,3,3,9,3,9,10,3,3,2,2,2,2,2,1,1060.txt
1,3,1,1,8,0,1,1,4,0,1,7,4,4,5,3,2,3,2,2,2,2,2,2,3,20,13,10,6,15,6,12,8,7,8,7,8,7,7,6,6,7,1,1,1,1,1,1,1,0,0,2,1,2,2,2,1,1064.txt
1,3,1,1,8,0,1,1,4,0,1,7,5,3,5,3,2,3,2,2,2,2,2,2,3,20,11,10,6,12,11,6,7,22,12,6,17,10,10,6,6,7,6,6,10,6,6,5,11,4,4,2,2,2,2,2,0,1069.txt
1,3,1,1,8,0,1,1,4,0,1,7,4,3,3,3,2,3,2,2,2,3,2,2,3,20,11,12,6,6,11,11,12,6,10,10,7,9,6,6,6,6,7,1,1,1,1,1,1,4,2,2,1,2,2,2,0,1071.txt
1,3,1,1,8,0,1,1,4,0,1,7,5,3,5,3,2,3,2,2,2,2,2,2,3,6,3,2,3,3,3,10,4,2,4,3,15,12,12,3,3,9,9,11,9,3,12,3,5,3,3,2,2,2,2,2,0,1073.txt
1,3,1,1,8,0,7,1,5,0,1,7,4,4,3,5,2,8,2,2,2,4,2,2,3,20,13,12,6,6,11,11,12,6,10,1,1,1,1,6,6,6,1,1,1,1,1,1,1,4,0,1,1,2,2,2,0,1075.txt
1,3,1,1,8,0,1,1,4,0,1,7,4,4,5,3,2,3,2,2,2,2,2,2,3,20,11,10,6,14,11,6,14,13,7,6,17,3,3,6,4,4,4,4,4,5,5,4,12,4,4,1,1,2,1,2,1,1076.txt
1,3,1,1,8,0,1,1,4,0,1,7,4,4,5,3,2,3,2,2,2,2,2,2,3,20,11,7,10,15,7,7,8,7,8,7,8,7,7,7,7,7,6,7,6,5,5,6,12,4,4,1,1,2,2,2,1,1078.txt
1,3,1,1,8,0,1,1,4,0,1,7,5,3,5,3,2,3,2,2,2,2,2,2,3,6,14,13,9,11,3,10,4,2,11,11,14,4,4,11,3,9,9,1,1,1,1,3,2,3,3,2,2,2,2,2,1,1080.txt
1,3,1,1,8,0,6,3,4,0,1,7,4,4,3,3,2,3,2,2,2,4,2,2,3,20,13,12,6,6,11,11,2,6,10,10,7,8,1,6,11,6,7,2,2,1,1,1,1,4,2,1,1,2,2,2,0,1082.txt
1,3,1,1,10,0,1,1,4,0,1,7,5,3,3,3,2,3,2,2,2,2,2,2,3,20,11,10,6,6,6,11,7,6,7,6,7,8,8,6,6,6,7,6,7,6,7,5,11,4,4,2,2,2,2,2,0,1084.txt
1,1,1,1,8,0,1,1,4,0,1,7,5,5,5,4,2,3,2,2,2,2,2,2,3,29,4,3,8,2,2,2,11,18,3,9,10,2,2,9,0,2,8,1,1,1,1,1,1,1,2,0,0,0,0,1,1,1086.txt
1,3,1,1,8,0,6,22,4,0,1,7,4,4,3,3,2,5,2,2,2,2,2,2,3,20,11,10,6,6,11,11,14,6,15,6,7,9,6,6,11,6,10,6,7,6,7,5,12,0,0,1,1,2,2,2,0,1088.txt
1,3,1,1,7,0,1,1,4,0,1,7,4,4,5,3,2,3,2,2,2,2,2,2,3,20,9,8,12,9,6,8,9,10,10,10,17,10,10,6,6,5,7,9,5,5,5,6,5,4,0,1,1,2,2,1,1,1090.txt
5,1,1,1,8,0,4,1,6,0,1,7,10,4,5,4,2,3,2,4,2,2,2,2,3,18,4,3,8,2,2,2,3,19,3,9,9,2,2,8,8,2,8,8,8,8,10,0,13,5,0,1,1,0,1,0,2,1093.txt
1,1,1,1,8,0,1,1,4,0,1,7,4,4,5,3,2,3,2,2,2,2,2,2,3,29,4,3,8,8,2,2,3,14,3,9,18,2,2,9,0,2,8,10,0,8,0,7,14,1,0,1,1,0,0,0,0,1094.txt
5,1,1,1,8,0,6,1,4,0,1,7,5,5,5,5,2,3,2,4,2,2,2,2,3,29,4,3,8,8,2,2,11,18,3,9,9,2,2,8,0,2,8,8,8,8,8,1,1,6,2,0,0,0,0,0,2,1096.txt
1,3,1,1,8,0,1,1,4,0,1,7,4,4,5,3,2,3,2,2,2,2,2,2,3,26,17,5,5,13,12,5,15,9,14,5,6,5,5,5,5,5,5,5,5,5,5,6,11,4,4,2,1,2,2,1,1,1101.txt
1,3,1,1,8,0,1,1,4,0,1,7,5,4,5,3,2,3,2,2,2,3,2,2,3,20,11,10,6,12,11,12,12,22,10,10,17,10,1,1,1,8,7,1,1,1,1,1,1,4,2,1,1,2,2,2,0,1105.txt
1,3,1,1,8,0,1,1,4,0,1,7,4,5,5,5,2,3,2,2,2,2,2,2,3,20,11,10,6,6,11,11,7,6,10,10,7,11,11,6,6,6,7,1,1,1,1,5,2,4,3,2,2,2,2,2,0,1106.txt
1,3,1,1,3,0,6,3,6,0,1,7,10,4,3,4,2,5,2,2,2,2,2,2,3,20,11,10,12,14,11,11,7,5,10,10,7,13,13,6,11,5,7,9,7,5,5,1,1,2,0,2,1,2,2,1,1,1108.txt
4,1,1,1,8,0,1,1,4,0,1,7,5,3,5,4,2,3,2,2,2,2,2,2,3,29,4,3,8,2,2,2,3,17,3,9,10,2,2,10,0,2,8,8,8,8,8,0,13,1,1,0,0,0,0,0,2,1109.txt
1,3,1,1,8,0,1,12,4,0,1,7,4,4,5,3,2,3,2,2,2,2,2,2,3,6,15,15,9,3,10,3,4,2,13,3,15,4,12,11,3,9,9,11,3,3,12,9,10,3,3,2,1,2,2,1,1,1114.txt
1,1,1,1,8,0,1,1,4,0,1,7,4,3,5,3,2,3,2,2,2,2,2,2,3,29,4,3,8,8,2,2,3,20,3,9,10,2,2,9,1,2,8,8,8,8,8,1,2,1,2,0,0,1,1,0,0,1117.txt
1,3,1,1,8,0,1,1,4,0,1,7,4,5,5,3,2,3,2,2,2,2,2,0,0,20,0,10,6,6,11,11,7,22,10,6,17,12,12,6,6,6,7,6,10,7,6,5,2,4,2,2,1,2,2,2,0,1118.txt
1,3,1,1,8,0,1,1,4,0,1,7,5,3,5,4,2,3,2,2,2,2,2,2,3,20,11,10,6,12,9,12,13,12,12,6,16,6,9,6,6,7,7,6,10,7,6,6,4,4,2,2,2,2,2,2,0,1121.txt
5,1,1,1,8,0,1,1,4,14,1,7,5,3,5,3,2,3,2,4,2,2,2,2,3,4,4,3,8,2,2,2,3,17,3,9,9,2,2,8,8,2,8,8,8,8,10,7,13,7,1,3,3,0,1,0,1,1122.txt
1,3,1,1,8,0,1,1,4,0,1,7,5,3,3,3,2,3,2,2,2,2,2,2,3,6,16,2,3,3,3,3,4,2,4,3,4,12,4,3,3,3,11,3,9,3,3,3,6,3,3,2,2,2,2,2,0,1124.txt
1,3,1,1,8,0,1,1,4,0,1,7,10,5,5,5,2,3,2,2,2,2,2,2,3,20,11,10,6,14,11,11,7,13,10,6,7,8,8,6,6,8,1,1,1,1,1,1,1,4,2,2,2,2,2,2,1,1126.txt
1,3,1,1,3,0,1,1,4,0,1,7,5,3,3,4,2,3,2,2,2,4,2,2,3,20,11,12,6,6,11,11,12,23,10,10,7,6,13,6,6,6,1,1,1,1,1,1,1,4,2,2,2,2,1,2,0,1128.txt
1,1,1,1,8,0,1,1,4,0,1,7,4,3,5,3,2,3,2,2,2,2,2,2,3,13,5,4,4,4,4,4,5,4,5,4,5,11,10,4,4,4,4,4,4,5,4,4,12,4,4,2,2,2,2,1,1,1130.txt
1,3,1,1,10,0,1,1,4,0,1,7,4,5,5,3,2,3,2,2,2,2,2,2,3,20,11,10,6,14,6,6,14,13,15,6,17,6,13,6,6,8,7,9,10,7,5,5,3,4,0,2,1,2,2,2,1,1135.txt
1,3,1,1,7,0,1,1,4,0,1,7,10,5,5,5,2,3,2,2,2,2,2,2,3,20,11,10,6,15,6,6,7,13,7,6,17,6,13,6,6,8,10,9,10,7,4,5,11,4,4,2,2,2,2,2,1,1136.txt
1,1,1,1,8,0,1,15,4,0,1,7,5,5,5,4,2,3,2,2,2,2,2,2,3,20,7,6,6,9,9,8,9,12,12,6,16,13,13,7,7,6,6,7,6,6,4,6,4,4,2,2,2,2,2,2,0,1137.txt
1,3,1,1,8,0,1,1,4,0,1,7,4,3,5,3,2,3,2,2,2,2,2,2,3,26,17,5,5,13,12,5,15,5,14,5,6,5,5,5,5,5,5,5,5,5,5,5,12,4,4,2,2,2,1,1,1,1139.txt
1,3,1,1,8,0,8,1,10,0,1,7,4,4,5,5,2,3,2,2,2,2,2,2,3,26,17,5,1,13,12,5,15,9,14,5,6,5,5,5,5,5,5,5,5,5,1,4,2,0,0,1,1,2,1,1,1,1141.txt
1,3,1,1,3,0,6,14,6,0,1,7,5,5,5,4,2,3,2,2,2,4,2,2,3,20,13,12,12,15,11,12,12,5,10,10,17,13,6,1,1,1,1,2,2,1,1,1,1,4,2,2,2,2,1,1,1,1143.txt
1,3,1,1,8,0,3,1,5,0,1,7,4,4,3,3,2,3,2,2,2,2,2,2,3,6,3,2,3,3,3,3,4,2,4,3,4,11,11,3,3,3,11,3,3,9,3,3,6,0,0,1,1,2,2,2,0,1147.txt
1,3,1,1,15,0,8,1,7,0,1,7,4,4,5,4,2,3,2,2,2,2,2,2,3,20,11,10,6,14,6,11,7,13,15,6,7,8,8,6,6,6,7,6,7,4,4,5,7,0,0,1,1,2,2,2,1,1149.txt
1,3,1,1,7,0,1,1,4,0,1,7,5,5,5,4,2,3,2,2,2,3,2,2,3,20,13,12,6,6,6,12,2,1,1,10,17,1,1,1,1,1,1,1,1,1,1,1,1,4,2,2,2,2,2,2,0,1151.txt
1,3,1,1,8,0,1,1,4,0,1,7,5,3,5,3,2,3,2,2,2,2,2,2,3,20,11,10,6,15,11,6,7,13,7,6,17,10,10,6,6,8,7,9,10,6,5,5,11,4,4,2,2,2,2,2,1,1152.txt
1,3,1,1,10,0,1,1,4,0,1,7,5,3,5,3,2,3,2,2,2,2,2,2,3,20,11,10,6,12,6,6,14,22,12,6,17,7,7,6,6,7,7,9,10,6,6,5,12,4,4,2,2,2,2,2,0,1156.txt
1,3,1,1,3,0,3,18,5,0,1,7,4,4,5,4,2,3,2,2,2,2,2,2,3,20,11,10,6,6,11,11,14,23,7,6,7,9,6,6,11,6,7,6,7,7,7,5,7,0,0,1,1,2,2,2,0,1158.txt
1,3,1,1,3,0,1,1,4,0,1,7,10,3,5,3,2,3,2,2,2,2,2,2,3,20,11,10,6,14,11,12,12,13,10,10,17,9,13,6,6,8,7,1,1,1,1,1,1,4,0,2,2,2,1,2,1,1161.txt
1,3,1,1,8,0,1,1,4,0,1,7,4,4,5,3,2,3,2,2,2,2,2,2,3,20,11,10,10,14,11,6,7,13,15,6,7,9,13,6,6,8,7,9,7,7,7,5,11,4,0,2,1,2,2,1,1,1166.txt
1,3,1,1,8,0,1,1,4,0,1,7,10,4,5,3,2,3,2,2,2,2,2,2,3,20,11,10,6,12,9,6,14,12,12,6,16,6,9,6,6,7,7,7,10,6,6,6,11,0,0,1,1,1,1,2,0,1168.txt
2,2,0,0,2,1,6,15,2,1,1,7,0,0,1,1,1,1,1,1,1,1,1,1,1,7,2,0,0,0,0,0,1,0,2,1,1,1,1,1,1,0,8,2,2,2,2,1,3,0,0,0,3,0,1,1,1,1169.txt
4,1,1,1,8,0,1,15,4,0,1,7,4,3,5,3,2,3,2,2,2,2,2,2,3,4,4,3,8,8,2,2,3,17,2,9,10,2,2,1,1,1,1,8,1,8,1,1,1,1,2,0,0,0,1,1,1,1171.txt
1,3,1,1,10,0,1,1,4,0,1,7,4,3,5,3,2,3,2,2,2,2,2,2,3,20,11,10,6,6,6,11,7,6,7,6,7,6,13,6,6,6,7,6,7,7,7,5,11,4,4,2,2,2,2,2,0,1175.txt
1,3,1,1,8,0,1,1,4,0,1,7,5,5,5,3,2,3,2,2,2,2,2,2,3,20,11,10,10,15,11,6,14,5,7,6,17,6,13,6,6,5,7,5,5,5,5,6,12,4,4,2,2,2,2,1,1,1177.txt
1,1,1,1,8,0,8,1,5,0,1,7,4,4,5,5,2,3,2,2,2,2,2,2,3,28,18,9,5,5,12,5,15,11,14,5,6,12,12,5,5,5,5,5,5,5,5,6,1,0,0,1,1,2,2,1,1,1179.txt
1,3,1,1,10,0,5,1,8,0,1,7,4,4,3,3,2,3,2,2,2,2,2,2,3,6,16,2,3,3,3,3,4,2,4,3,4,8,1,3,3,10,11,3,9,9,3,3,2,0,0,1,1,2,2,2,0,1183.txt
1,1,1,1,8,0,1,15,4,0,1,7,4,4,5,3,2,3,2,2,2,2,2,2,3,29,4,3,2,2,2,2,3,20,3,9,10,2,2,9,0,2,8,0,0,0,11,7,14,1,1,1,1,0,1,1,1,1184.txt
1,3,1,1,8,0,1,3,4,22,1,7,4,5,5,3,2,3,2,2,2,2,2,2,3,6,9,8,3,3,10,10,4,3,13,3,4,10,12,11,10,10,3,3,9,3,12,9,10,3,2,2,2,2,1,1,1,1190.txt
1,3,1,1,8,0,6,1,6,0,1,7,4,4,5,4,2,3,2,2,2,2,2,2,3,27,17,5,5,13,12,5,15,5,14,5,6,5,5,5,5,5,1,5,1,1,1,1,1,2,2,1,1,2,1,1,1,1192.txt
1,3,1,1,8,0,1,1,4,0,1,7,5,3,5,3,2,3,2,2,2,2,2,2,3,6,3,2,3,3,3,3,4,2,4,3,15,10,12,3,10,9,9,11,3,3,12,3,10,3,3,2,2,2,1,2,1,1194.txt
5,1,1,1,8,0,1,1,4,15,1,7,4,4,5,3,2,3,2,4,2,2,2,2,3,29,4,3,8,8,2,2,3,20,3,9,9,2,2,8,8,2,8,8,8,8,10,0,5,5,1,0,1,0,1,0,1,1196.txt
5,1,1,1,8,0,1,1,4,0,1,7,10,4,5,4,2,3,2,4,2,2,2,2,3,29,4,3,8,2,2,2,3,20,3,9,9,2,2,8,8,2,8,8,8,8,8,0,6,6,0,1,1,0,0,0,2,1197.txt
1,3,1,1,8,0,1,1,4,0,1,7,4,4,3,4,2,3,2,2,2,2,2,2,3,20,13,10,6,6,11,11,12,23,10,10,7,6,6,6,6,6,10,6,7,1,1,1,2,4,2,1,1,2,2,2,0,1199.txt
1,3,1,1,10,0,6,1,4,0,1,7,5,5,5,3,2,3,2,2,2,2,2,2,3,20,11,10,6,6,6,11,12,6,10,10,7,9,6,6,6,6,7,6,1,1,1,2,1,4,2,2,2,2,2,2,0,1201.txt
1,3,1,1,8,0,1,1,4,0,1,7,5,3,5,3,2,3,2,2,2,3,2,2,3,20,13,10,6,12,11,12,12,22,10,10,17,6,9,6,6,8,10,2,1,1,1,1,1,4,2,2,2,1,1,2,0,1203.txt
1,3,1,1,8,0,1,3,4,0,1,7,5,3,3,3,2,3,2,2,2,2,2,2,3,20,11,10,6,6,11,11,7,23,15,6,7,13,6,6,11,6,7,6,7,6,7,5,6,4,4,2,2,2,2,2,0,1205.txt
1,3,1,1,3,0,1,18,4,0,1,7,5,5,3,4,2,4,2,2,2,3,2,2,3,20,11,12,12,14,6,11,12,1,1,10,7,13,6,6,11,1,1,1,1,1,1,1,1,4,2,2,2,2,2,1,1,1207.txt
1,3,1,1,8,0,8,1,10,0,1,7,4,4,5,3,2,3,2,2,2,2,2,2,3,6,3,2,3,3,3,1,1,2,13,1,1,1,1,3,3,1,1,11,9,1,1,1,1,0,0,1,1,2,2,2,0,1211.txt
1,3,1,1,10,0,1,1,4,0,1,7,10,3,5,3,2,3,2,2,2,3,2,2,3,6,3,2,3,3,3,3,4,2,4,3,4,10,4,3,10,10,3,1,1,1,1,3,1,3,2,2,2,2,2,2,0,1214.txt
1,3,1,1,8,0,1,1,4,0,1,7,4,3,5,3,2,3,2,2,2,3,2,2,3,20,13,10,6,6,11,11,7,23,10,10,7,11,1,6,6,6,7,9,7,7,1,1,2,4,2,2,2,2,2,2,0,1216.txt
1,1,1,1,8,0,1,1,4,0,1,7,5,5,5,3,2,3,2,2,2,2,2,2,3,20,7,6,6,9,9,6,9,12,12,6,16,6,9,7,7,6,10,7,6,6,6,6,11,4,4,2,2,2,2,2,0,1217.txt
1,3,1,1,8,0,1,1,4,0,1,7,4,4,5,3,2,3,2,2,2,2,2,2,3,20,11,10,10,14,11,11,7,13,15,6,7,8,8,6,6,8,7,9,7,7,7,5,3,4,0,1,1,2,2,1,1,1219.txt
4,1,1,1,3,0,6,1,4,0,1,7,4,5,5,4,2,3,2,2,2,2,2,2,3,18,4,3,8,2,2,2,3,18,3,2,10,2,2,9,0,2,8,8,8,8,8,0,13,0,0,0,0,0,0,0,2,1221.txt
1,3,1,1,8,0,6,1,6,0,1,7,5,5,3,4,2,3,2,2,2,2,2,2,3,20,11,10,12,15,11,12,13,9,10,6,7,6,13,6,6,5,10,5,5,5,1,4,1,2,0,2,2,2,2,1,1,1225.txt
1,3,1,1,8,0,1,3,4,0,1,7,4,5,3,3,2,3,2,2,2,2,2,2,3,20,11,10,6,6,11,11,7,6,10,10,7,8,8,6,11,6,10,6,7,7,7,1,3,4,2,2,2,2,2,2,0,1228.txt
1,1,1,1,8,0,6,1,4,0,1,7,5,4,5,3,2,3,2,2,2,4,2,2,3,29,4,3,11,8,2,2,3,15,3,9,12,2,2,9,0,1,1,1,1,1,1,1,1,1,2,1,1,0,1,1,1,1230.txt
1,3,1,1,8,0,1,3,4,0,1,7,10,4,5,3,2,3,2,2,2,2,2,2,3,20,11,10,10,14,11,11,7,13,10,6,7,8,8,6,11,8,7,9,7,7,7,5,2,4,2,2,1,2,2,1,1,1234.txt
1,3,1,1,8,0,1,1,4,0,1,7,4,3,5,3,2,3,2,2,2,2,2,2,3,20,11,10,6,15,11,6,7,12,12,6,16,10,10,6,6,8,7,5,5,5,5,6,11,4,4,2,2,2,2,2,1,1237.txt
1,1,1,1,8,0,6,1,6,0,1,7,4,4,5,4,2,3,2,2,2,2,2,2,3,29,4,3,2,8,2,2,3,20,3,2,13,2,2,9,0,2,1,0,0,0,1,1,2,0,0,1,1,0,0,1,1,1239.txt
1,3,1,1,9,0,1,3,4,0,1,7,5,5,3,4,2,4,2,2,2,3,2,2,3,27,10,9,1,5,13,5,2,1,1,5,6,5,1,5,1,1,1,2,2,1,1,1,1,2,2,2,2,1,1,1,1,1241.txt
5,1,1,1,3,0,1,1,4,0,1,7,5,5,5,4,2,0,0,0,0,0,0,0,0,29,0,3,8,2,2,2,3,18,3,2,9,2,2,8,0,2,8,8,8,8,8,0,5,0,0,0,0,0,0,0,1,1243.txt
1,1,1,1,8,0,1,1,4,15,1,7,5,5,5,4,2,3,2,2,2,2,2,2,3,1,4,3,2,8,2,2,3,18,3,9,10,2,2,9,0,2,8,0,0,0,11,0,14,2,1,0,0,0,1,1,1,1245.txt
1,1,1,1,8,0,6,1,6,0,1,7,4,4,5,4,2,3,2,2,2,2,2,2,3,18,4,3,11,8,2,2,3,20,3,9,13,2,2,9,0,2,8,12,0,0,11,7,9,1,0,1,1,0,0,1,1,1249.txt
1,3,1,1,8,0,1,1,4,0,1,7,4,3,5,3,2,3,2,2,2,2,2,2,3,20,13,10,10,14,11,11,12,13,10,10,7,8,8,6,6,8,7,1,1,1,1,5,2,4,2,2,2,2,2,2,1,1251.txt
1,3,1,1,8,0,3,17,5,0,1,7,4,4,3,4,2,5,2,2,2,2,2,2,3,20,13,10,12,14,1,1,1,5,15,1,1,1,1,6,11,5,10,9,7,5,5,5,12,4,0,1,1,1,1,1,1,1254.txt
5,1,1,1,8,0,1,1,4,19,1,7,5,3,5,4,2,3,2,4,2,2,2,2,3,29,0,3,8,8,2,2,3,20,3,2,9,2,2,8,8,2,8,8,8,8,8,7,4,6,1,0,0,1,1,1,1,1255.txt
1,3,1,1,3,0,1,1,4,0,1,7,5,5,5,4,2,3,2,2,2,2,2,2,3,20,11,10,6,12,9,6,13,22,12,6,16,6,13,6,6,6,10,6,6,2,2,2,7,0,0,2,2,2,2,2,0,1267.txt
1,3,1,1,8,0,1,3,4,0,1,7,6,5,5,4,2,3,2,2,2,2,2,2,3,20,9,8,12,9,11,8,9,3,8,7,8,13,9,7,7,5,7,7,6,6,5,6,6,2,4,2,2,2,2,1,1,1271.txt
1,1,1,1,8,0,6,1,6,3,1,7,4,4,1,1,2,3,2,2,2,2,2,2,3,29,4,3,2,8,2,2,3,19,3,9,10,2,2,8,0,2,0,0,0,0,11,0,7,2,1,0,1,0,0,1,1,1274.txt
5,1,1,1,8,0,7,18,4,21,1,7,10,5,5,5,2,3,2,4,2,2,2,2,2,29,4,3,8,8,2,2,3,20,3,9,2,2,2,8,2,2,2,8,8,8,10,0,7,5,1,3,0,0,0,0,2,1276.txt
1,3,1,1,5,0,6,1,6,0,1,7,10,5,3,4,2,6,2,2,2,2,2,2,3,20,11,10,12,14,11,11,13,9,15,6,7,13,9,6,11,5,7,5,5,5,5,5,1,2,0,2,2,2,2,1,1,1278.txt
1,1,1,1,10,0,1,1,4,0,1,7,5,3,5,3,2,3,2,0,0,0,0,0,0,0,0,3,11,2,2,2,11,14,3,2,18,2,2,9,0,2,8,12,0,8,0,0,14,1,1,0,0,0,0,1,1,1280.txt
1,1,1,1,8,0,6,3,4,27,1,7,10,5,3,3,2,3,2,2,2,2,2,2,3,30,4,3,2,8,2,2,3,18,3,9,10,2,2,10,0,2,0,0,0,0,11,1,1,2,2,0,3,0,1,1,1,1283.txt
4,1,1,1,9,0,4,1,8,3,1,8,4,3,5,4,2,3,2,4,2,2,2,2,3,29,4,3,8,8,2,2,3,18,3,9,9,2,2,8,0,2,1,1,1,1,1,1,1,2,2,0,3,0,1,1,1,1285.txt
1,3,1,1,10,0,1,1,4,0,1,7,5,5,5,4,2,3,2,2,2,2,2,2,3,20,7,6,6,9,9,6,9,12,12,6,16,6,9,6,6,7,7,4,4,4,4,4,12,4,4,2,2,1,1,2,0,1287.txt
1,3,1,1,8,0,1,1,4,0,1,7,4,5,3,5,2,3,2,2,2,2,2,2,3,20,11,10,6,6,11,11,12,6,10,10,7,13,13,6,11,6,10,6,6,7,7,5,3,4,2,2,2,2,2,2,0,1288.txt
1,3,1,1,4,0,6,1,8,0,1,7,10,4,3,4,2,5,2,2,2,2,2,2,3,27,6,5,5,5,13,5,6,9,6,5,6,5,5,5,5,5,5,5,5,5,5,4,3,2,2,2,1,2,1,1,1,1290.txt
1,1,1,1,24,0,6,18,4,6,1,7,5,5,3,4,2,6,2,2,2,4,2,2,3,25,1,1,1,5,13,5,6,11,6,5,6,1,1,5,5,1,1,1,1,1,1,1,1,2,2,2,1,2,2,1,1,1292.txt
1,3,1,1,8,0,1,1,4,0,1,7,4,4,5,3,2,3,2,2,2,2,2,2,3,6,3,2,3,3,3,3,4,2,4,3,4,12,4,3,3,10,3,3,1,1,1,1,2,3,2,1,1,2,2,1,1,1295.txt
1,3,1,1,8,0,1,3,4,0,1,7,5,4,5,5,2,3,2,2,2,2,2,2,3,20,11,10,12,15,11,6,7,5,7,6,17,13,13,6,7,5,6,4,4,4,5,4,12,4,4,2,1,2,2,1,1,1297.txt
1,3,1,1,10,0,1,1,4,0,1,7,5,5,5,3,2,3,2,2,2,3,2,2,3,20,11,10,6,14,6,12,8,7,8,7,1,1,1,1,1,7,6,1,1,1,1,1,1,4,2,2,2,2,1,2,0,1300.txt
1,3,1,1,8,0,6,3,6,0,1,7,4,4,3,3,2,5,2,2,2,2,2,2,3,20,13,7,12,15,7,7,2,5,8,7,8,13,1,7,7,5,1,1,1,1,1,1,1,2,0,1,1,2,2,1,1,1302.txt
1,3,1,1,8,0,1,1,4,0,1,7,10,3,5,3,2,3,2,2,2,2,2,2,3,20,11,10,6,6,11,11,7,6,7,6,7,12,4,6,6,6,7,6,7,7,7,5,7,4,3,2,2,2,2,2,0,1303.txt
1,3,1,1,8,0,1,1,4,0,1,7,10,4,5,5,2,3,2,2,2,2,2,2,3,20,11,10,6,6,11,6,14,22,7,6,17,6,9,6,6,6,10,4,4,4,4,4,12,4,4,2,1,2,2,2,0,1305.txt
1,3,1,1,8,0,7,3,4,0,1,7,4,4,5,5,2,3,2,2,2,2,2,2,3,20,11,10,6,14,11,6,7,13,10,10,17,13,13,6,11,8,6,9,6,7,6,5,4,0,0,1,1,2,2,2,1,1307.txt
4,1,1,1,8,0,1,1,4,0,1,7,4,5,5,3,2,3,2,2,2,2,2,2,3,23,4,3,8,8,2,2,3,21,3,9,18,2,2,9,0,2,8,8,8,8,8,0,4,1,1,0,0,0,1,0,0,1309.txt
1,3,1,1,10,0,1,1,4,0,1,7,4,4,5,3,2,3,2,2,2,2,2,2,3,6,3,2,3,3,3,3,4,2,4,3,15,4,12,3,3,9,9,11,1,1,1,1,1,3,0,1,1,2,2,2,1,1311.txt
1,3,1,1,7,0,1,1,4,0,1,7,5,3,5,3,2,3,2,2,2,2,2,2,3,6,3,2,3,3,3,3,4,2,4,3,4,12,4,3,3,10,11,11,9,3,3,3,4,3,2,2,2,2,2,2,0,1314.txt
1,3,1,1,8,0,1,1,4,0,1,7,4,4,5,3,2,3,2,2,2,2,2,2,3,20,11,10,6,6,11,11,12,23,15,6,7,9,6,6,6,6,7,6,7,7,7,5,4,4,4,2,1,2,2,2,0,1315.txt
1,1,1,1,10,0,6,1,4,0,1,7,4,4,5,4,2,3,2,2,2,2,2,2,3,20,9,8,6,9,9,8,9,10,10,6,16,7,7,6,11,7,7,9,10,6,6,6,6,0,0,1,1,2,2,2,1,1317.txt
1,1,1,1,8,0,6,1,4,0,1,7,10,5,5,5,2,3,2,2,2,2,2,2,3,20,7,6,6,9,9,8,9,12,12,6,16,6,9,6,6,7,7,6,10,6,6,6,4,4,2,2,2,2,2,2,0,1318.txt
1,3,1,1,8,0,1,3,4,0,1,7,4,4,3,3,2,3,2,2,2,2,2,2,3,20,11,10,6,6,11,11,7,6,15,6,7,8,8,6,11,6,10,6,7,6,7,5,6,4,2,1,1,2,2,2,0,1320.txt
1,3,1,1,8,0,1,3,4,0,1,7,5,3,5,4,2,3,2,2,2,2,2,2,3,6,3,2,3,3,3,3,4,2,13,3,1,1,1,3,3,10,3,3,9,3,12,9,1,3,2,2,2,2,2,2,0,1323.txt
1,3,1,1,8,0,1,1,4,0,1,7,5,3,5,4,2,3,2,2,2,2,2,2,3,20,11,10,6,6,6,6,13,6,7,6,17,6,13,6,6,8,7,9,10,6,6,5,11,4,4,2,2,2,1,2,0,1325.txt
1,3,1,1,12,0,8,18,5,0,1,7,4,4,5,4,2,3,2,2,2,2,2,2,3,20,11,10,6,6,6,11,12,23,10,10,7,13,9,6,11,7,6,6,7,6,6,5,5,0,0,1,1,2,2,2,0,1327.txt
1,3,1,1,8,0,1,1,4,0,1,7,4,4,5,4,2,3,2,2,2,2,2,2,3,20,11,10,6,12,9,12,14,12,10,10,16,6,9,7,7,8,6,7,6,1,1,6,2,4,2,2,1,2,1,2,0,1329.txt
1,3,1,1,4,0,8,3,10,0,1,7,4,4,5,4,2,3,2,2,2,2,2,2,3,20,11,10,10,14,11,11,12,13,10,10,7,9,6,6,11,8,7,9,7,1,1,5,2,0,0,1,1,2,2,2,1,1331.txt
1,3,1,1,3,0,1,1,4,0,1,7,5,3,3,3,2,3,2,2,2,2,2,2,3,20,11,10,6,6,11,11,13,23,15,6,7,6,13,6,6,6,10,6,6,7,7,5,7,4,4,2,2,2,2,2,0,1332.txt
1,3,1,1,8,0,1,1,4,0,1,7,4,4,5,4,2,3,2,2,2,2,2,2,3,26,6,5,5,5,12,5,15,13,14,5,6,12,12,5,5,8,5,5,5,5,5,5,11,4,3,2,1,2,2,2,1,1335.txt
1,1,1,1,10,0,6,1,8,13,1,7,4,4,5,4,2,3,2,2,2,2,2,2,3,1,1,1,1,8,2,2,3,18,3,9,10,2,2,8,0,2,8,10,0,8,11,0,4,2,0,1,1,0,0,1,1,1337.txt
1,3,1,1,8,0,1,1,4,0,1,7,5,5,5,3,2,3,2,2,2,2,2,2,3,20,11,10,6,14,11,11,13,13,10,10,7,6,13,6,6,8,7,5,5,5,5,5,1,4,2,2,2,2,2,2,1,1339.txt
1,3,1,1,8,0,1,18,4,0,1,7,10,3,5,3,2,3,2,2,2,2,2,2,3,20,11,10,6,14,11,11,7,13,7,6,17,13,13,6,11,8,10,9,10,7,7,5,11,4,4,2,2,2,2,2,1,1341.txt
1,3,1,1,8,0,1,1,4,0,1,7,5,5,5,3,2,3,2,2,2,2,2,2,3,20,11,10,6,6,11,11,13,6,7,6,7,6,13,6,6,6,7,6,7,7,7,5,7,4,4,2,2,2,2,2,0,1344.txt
1,3,1,1,8,0,1,1,4,0,1,7,4,3,5,3,2,3,2,2,2,2,2,2,3,20,11,10,6,12,11,6,7,22,7,6,17,9,9,6,6,7,7,9,10,6,6,5,11,4,4,2,2,2,2,2,0,1346.txt
1,3,1,1,8,0,1,3,4,0,1,7,4,4,5,3,2,3,2,2,2,2,2,2,3,20,11,10,10,14,11,6,7,13,7,6,17,9,9,6,11,8,7,9,7,7,6,5,0,4,4,2,1,2,2,2,1,1348.txt
1,1,1,1,3,0,1,10,4,15,1,7,5,3,5,4,2,3,2,2,2,3,2,2,3,29,4,3,2,8,1,1,1,3,3,1,1,1,1,2,0,2,1,1,1,1,1,1,1,0,0,0,0,0,0,1,1,1351.txt
1,3,1,1,8,0,1,1,4,0,1,7,5,3,5,3,2,3,2,2,2,2,2,2,3,20,11,10,6,12,11,6,7,22,7,6,17,6,9,6,6,8,7,9,10,4,4,5,11,4,4,2,2,2,2,2,0,1352.txt
1,3,1,1,8,0,3,3,5,0,1,7,4,4,3,3,2,5,2,2,2,2,2,2,3,20,11,10,6,6,11,11,7,6,10,6,7,8,8,6,11,6,7,6,7,7,1,5,2,0,0,1,1,2,2,2,0,1354.txt
1,3,1,1,3,0,1,1,4,0,1,7,4,4,5,5,2,3,2,2,2,2,2,2,3,20,11,10,6,6,11,11,7,23,15,10,7,6,6,6,11,6,7,6,7,7,7,5,4,4,0,1,1,2,2,2,0,1356.txt
1,3,1,1,4,0,5,1,6,0,1,7,4,4,5,4,2,3,2,2,2,2,2,2,3,20,11,10,6,6,11,11,14,23,15,6,7,9,13,6,6,4,4,4,4,4,4,4,12,4,0,1,1,2,1,2,0,1358.txt
1,3,1,1,8,0,6,1,6,0,1,7,4,4,3,4,2,3,2,2,2,2,2,2,3,20,13,10,6,6,11,11,12,6,10,10,7,9,1,6,11,6,7,1,1,1,1,1,1,0,0,1,1,2,2,2,0,1360.txt
1,1,1,1,8,0,1,1,4,0,1,7,10,4,5,5,2,3,2,2,2,2,2,2,3,29,4,3,8,2,2,2,3,20,3,9,10,2,2,9,0,2,8,10,8,8,11,0,6,1,0,0,1,0,0,1,1,1362.txt
1,3,1,1,8,0,1,1,4,0,1,7,5,5,5,3,2,3,2,2,2,2,2,2,3,20,11,10,6,6,11,11,13,6,7,6,7,6,13,6,6,6,7,6,10,7,7,5,12,4,4,2,2,2,1,2,0,1364.txt
1,3,1,1,26,0,1,1,4,0,1,7,5,3,5,3,2,3,2,2,2,3,2,2,3,20,13,10,6,15,6,12,14,12,10,1,1,1,1,6,6,7,1,1,1,1,1,1,1,4,2,2,2,1,1,2,0,1367.txt
5,1,1,1,10,0,3,1,5,23,1,8,4,4,5,5,6,3,2,4,2,2,2,2,2,29,12,3,8,8,2,2,3,20,3,9,9,2,2,8,8,2,8,8,1,1,1,0,1,7,5,1,1,0,0,1,1,1368.txt
1,1,1,1,8,0,1,1,4,0,1,7,5,3,5,4,2,3,2,2,2,2,2,2,3,20,7,6,10,9,6,8,9,12,10,10,16,6,13,6,6,8,7,9,10,5,6,1,1,4,2,2,2,2,1,1,1,1371.txt
1,3,1,1,4,0,8,1,10,0,1,7,4,4,5,4,2,3,2,2,2,2,2,2,3,20,11,10,6,12,11,6,13,22,12,6,17,6,13,6,6,8,7,9,4,4,4,4,6,0,0,1,1,2,2,2,0,1372.txt
1,3,1,1,4,0,6,3,8,0,1,7,4,4,3,4,2,3,2,2,2,2,2,2,3,0,5,4,4,4,4,4,5,4,5,4,5,3,3,4,4,4,4,4,4,4,4,4,12,0,0,1,1,2,2,2,0,1375.txt
1,3,1,1,0,0,8,1,7,0,1,7,1,4,5,3,2,3,2,2,2,2,2,2,3,20,11,10,6,6,6,6,14,6,7,6,17,6,9,6,6,0,7,4,4,4,4,4,12,0,0,1,1,2,2,2,0,1377.txt
2,0,0,2,0,0,1,0,0,0,0,0,0,0,0,0,0,0,0,0,0,0,0,0,0,20,0,0,0,0,0,0,0,0,0,0,17,0,0,0,6,0,7,9,10,7,4,5,8,4,0,2,1,2,2,1,1,1379.txt
2,2,0,0,0,0,1,1,3,2,3,9,0,0,0,0,1,0,0,0,0,0,0,0,0,7,0,0,0,0,0,0,0,0,0,0,9,0,0,0,8,0,8,8,8,8,9,0,8,7,5,3,3,1,1,1,1,1380.txt
1,3,1,1,4,0,3,1,5,0,1,7,10,4,5,4,2,3,2,2,2,2,2,2,3,20,11,10,6,6,11,11,12,23,15,6,7,6,13,6,6,6,10,6,7,4,4,4,7,0,0,1,1,2,1,2,0,1383.txt
1,1,1,1,8,0,1,1,4,0,1,7,5,3,5,3,2,3,2,2,2,2,2,2,3,29,4,3,8,8,2,2,3,18,3,9,10,2,2,9,0,2,8,8,8,8,8,7,1,1,2,0,0,0,1,0,1,1389.txt
1,1,1,1,10,0,1,1,0,0,1,7,4,4,5,3,2,3,2,2,2,3,2,2,3,7,4,3,2,8,2,2,3,1,1,9,0,2,2,1,1,0,0,1,1,1,1,2,1,1,2,1,1,1,1,1,1,1390.txt
1,3,1,1,8,0,1,1,4,0,1,7,5,5,5,3,2,3,2,2,2,2,2,2,3,20,11,10,6,12,9,6,14,12,12,6,16,3,3,6,4,4,4,4,4,4,4,4,6,4,4,2,2,2,1,2,0,1392.txt
1,3,1,1,8,0,1,1,4,0,1,7,4,4,5,3,2,3,2,2,2,2,2,2,3,6,15,2,9,3,3,3,4,2,4,3,15,10,10,3,10,9,9,11,3,3,12,3,4,3,0,1,1,2,2,2,0,1395.txt
1,3,1,1,8,0,1,3,4,0,1,7,4,3,5,3,2,3,2,2,2,2,2,2,3,20,11,10,6,6,11,11,14,6,7,6,7,13,13,6,11,6,10,6,7,7,7,5,12,4,0,2,1,2,2,2,0,1396.txt
1,3,1,1,3,0,6,1,4,0,1,7,5,5,5,4,2,3,2,2,2,4,2,2,3,20,13,12,6,15,11,12,12,13,10,10,17,6,9,6,6,1,1,1,1,1,1,1,1,4,2,2,2,1,1,2,1,1398.txt
1,3,1,1,20,0,1,1,4,0,1,7,4,4,5,3,2,3,2,2,2,2,2,2,3,20,11,10,6,14,6,11,7,13,15,6,7,9,6,6,6,8,7,9,7,7,7,5,7,4,4,2,1,2,2,2,1,1400.txt
1,3,1,1,3,0,6,1,6,0,1,7,5,4,5,4,2,3,2,2,2,4,2,2,3,20,13,12,6,6,11,11,12,23,10,10,7,6,9,6,1,7,6,6,6,6,1,1,1,0,0,1,1,2,2,2,0,1402.txt
1,3,1,1,10,0,1,1,0,0,1,7,5,5,5,4,2,3,2,2,2,2,2,2,3,20,7,6,6,9,9,7,8,7,8,7,8,7,7,7,7,7,6,7,6,6,6,6,12,4,4,2,2,2,1,2,0,1405.txt
1,3,1,1,8,0,1,11,4,0,1,7,4,3,5,3,2,3,2,2,2,2,2,2,3,20,11,10,6,6,11,11,7,6,15,6,7,7,7,6,11,7,7,6,7,6,6,5,11,4,3,2,2,2,2,2,0,1407.txt
1,3,1,1,8,0,1,1,4,0,1,7,5,4,5,3,2,3,2,2,2,2,2,2,3,20,11,10,6,12,9,6,7,12,12,6,16,6,9,6,6,6,7,7,10,6,6,6,4,4,4,2,1,2,2,2,0,1409.txt
1,3,1,1,3,0,6,17,6,22,1,7,2,5,3,4,2,7,2,2,2,4,2,2,3,20,13,12,12,14,11,11,2,1,1,10,1,1,1,6,11,1,1,1,1,1,1,1,1,2,0,2,1,2,2,1,1,1412.txt
1,3,1,1,8,0,1,1,4,0,1,7,4,5,5,3,2,3,2,2,2,2,2,2,3,20,11,10,6,14,11,6,7,13,7,6,17,9,9,6,6,8,7,9,10,7,6,5,12,4,4,2,2,2,2,2,1,1416.txt
1,3,1,1,14,0,1,1,4,0,1,7,4,4,5,3,2,3,2,2,2,2,2,2,3,20,11,10,6,6,6,11,14,23,15,6,7,6,13,6,6,6,7,4,4,7,4,4,12,4,0,1,1,2,1,2,0,1418.txt
1,1,1,1,10,0,1,1,4,0,1,7,5,3,5,3,2,3,2,2,2,2,2,2,3,29,4,3,8,8,2,2,3,17,3,2,10,2,2,9,0,2,8,10,0,8,1,2,1,1,2,0,0,0,0,1,1,1421.txt
1,3,1,1,10,0,1,1,4,0,1,7,5,3,5,3,2,3,2,2,2,2,2,2,3,20,11,10,6,6,6,11,14,6,15,6,7,6,13,6,6,6,10,6,10,7,4,5,2,4,4,2,1,1,1,2,0,1422.txt
1,3,1,1,8,0,7,1,4,0,1,7,4,3,5,3,2,3,2,2,2,2,2,2,3,20,11,10,6,15,6,6,7,12,12,6,16,12,10,6,6,8,7,9,10,7,7,6,11,4,4,2,2,2,2,2,1,1425.txt
1,1,1,1,8,0,7,1,6,0,1,7,4,4,5,5,2,3,2,2,2,2,2,2,3,20,7,6,10,9,9,8,9,12,12,6,16,3,3,6,4,4,4,4,4,4,4,4,11,0,0,1,1,2,2,2,1,1427.txt
1,1,1,1,8,0,1,1,4,0,1,7,5,5,5,3,2,3,2,2,2,2,2,2,3,29,4,3,8,8,2,2,3,20,3,9,10,2,2,9,0,2,8,10,0,8,11,7,9,1,1,0,0,0,0,1,1,1429.txt
4,1,1,1,8,0,7,1,4,0,1,7,5,5,5,5,2,3,2,2,2,2,2,2,3,29,4,3,8,8,2,2,3,20,3,9,2,2,2,10,2,2,2,8,8,2,2,2,2,1,2,0,0,0,0,0,2,1431.txt
1,3,1,1,8,0,1,15,4,0,1,7,4,4,5,3,2,3,2,2,2,2,2,2,3,20,9,8,10,9,11,8,9,10,15,6,17,13,13,6,11,8,6,7,6,6,5,6,12,4,4,1,1,2,2,1,1,1433.txt
1,3,1,1,8,0,1,4,4,0,1,7,10,4,3,5,2,3,2,2,2,3,2,2,3,20,11,10,6,6,11,11,12,23,10,10,7,9,13,6,11,6,7,6,7,1,1,5,1,0,0,1,1,2,2,2,0,1434.txt
1,3,1,1,8,0,1,4,4,0,1,7,10,4,3,5,2,3,2,2,2,3,2,2,3,20,11,10,6,6,11,11,12,23,10,10,7,9,13,6,11,6,7,6,7,1,1,5,1,0,0,1,1,2,2,2,0,1436.txt
1,3,1,1,0,0,8,1,7,0,1,7,1,4,3,3,2,8,2,2,2,4,2,2,3,20,13,12,6,6,6,11,2,6,10,10,7,6,6,6,1,0,1,6,7,1,1,1,1,0,0,1,1,2,2,2,0,1439.txt
1,3,1,1,8,0,7,3,4,0,1,7,10,5,5,5,2,3,2,2,2,2,2,2,3,20,11,10,6,6,6,11,12,23,15,6,7,13,6,6,11,6,7,6,10,7,7,5,4,4,4,2,2,2,2,2,0,1441.txt
1,1,1,1,8,0,1,1,4,0,1,7,5,3,5,3,2,3,2,2,2,2,2,2,3,29,4,3,8,8,2,2,3,20,3,9,13,2,2,9,0,2,8,10,8,8,11,0,9,1,1,0,0,0,0,0,1,1442.txt
5,1,1,1,8,0,5,1,6,0,1,7,10,4,5,4,2,3,2,4,2,2,2,2,3,18,4,3,8,8,2,2,3,20,3,9,9,2,2,8,0,2,8,8,8,8,8,7,13,6,0,1,1,0,0,0,2,1444.txt
1,3,1,1,3,0,8,1,7,0,1,7,4,4,5,4,2,3,2,2,2,2,2,2,3,20,11,10,6,6,6,11,12,23,15,6,7,6,13,6,6,6,4,4,4,4,4,4,12,4,0,1,1,2,2,2,0,1446.txt
1,3,1,1,8,0,1,1,4,0,1,7,5,5,5,4,2,3,2,2,2,2,2,2,3,20,11,10,6,6,11,11,14,23,7,6,17,3,3,4,4,4,4,4,4,4,4,4,12,4,4,2,2,2,2,2,0,1448.txt
1,3,1,1,8,0,1,1,4,0,1,7,5,3,5,3,2,3,2,2,2,2,2,2,3,20,11,10,6,6,11,6,7,22,12,6,17,10,10,6,6,7,7,6,10,6,6,5,11,4,4,2,2,2,2,2,0,1451.txt
1,3,1,1,8,0,1,1,4,0,1,7,5,5,5,3,2,3,2,2,2,2,2,2,3,20,11,10,6,12,11,6,14,22,12,10,16,9,9,6,6,8,7,9,10,6,7,6,4,4,4,2,2,2,2,2,0,1453.txt
1,3,1,1,5,0,6,1,6,0,1,7,5,5,3,4,2,3,2,2,2,2,2,2,3,20,11,10,10,14,6,11,13,13,10,10,7,3,3,4,6,4,4,4,4,1,1,4,2,4,4,2,1,2,1,1,1,1454.txt
1,1,1,1,8,0,8,1,5,0,1,7,4,4,5,3,2,3,2,2,2,2,2,2,3,29,4,3,2,2,2,2,3,15,3,9,12,2,2,2,0,2,8,0,0,0,11,0,14,0,0,1,1,0,1,1,1,1456.txt
1,3,1,1,3,0,8,1,5,0,1,7,4,4,5,3,2,3,2,2,2,4,2,2,3,20,11,12,6,6,11,11,12,23,10,10,7,6,13,6,6,6,10,6,1,1,1,1,1,0,0,1,1,1,1,2,0,1458.txt
1,3,1,1,8,0,1,15,4,0,1,7,5,3,5,4,2,3,2,2,2,2,2,2,3,20,11,10,6,6,11,11,12,23,15,10,7,13,9,7,7,6,10,7,6,6,7,5,4,4,0,2,2,2,2,2,0,1460.txt
1,1,1,1,8,0,1,1,4,0,1,7,4,4,5,5,2,3,2,2,2,2,2,2,3,20,7,6,12,9,11,8,9,9,15,6,17,3,3,6,4,5,4,4,4,5,5,4,0,0,0,1,1,2,2,1,1,1462.txt
1,3,1,1,8,0,7,1,4,0,1,7,4,4,5,3,2,3,2,2,2,2,2,2,3,20,11,10,6,15,11,6,12,13,7,6,17,9,13,6,6,8,7,9,5,5,5,5,11,4,4,1,1,2,2,2,1,1465.txt
1,3,1,1,8,0,1,1,4,0,1,7,4,3,5,3,2,3,2,2,2,2,2,2,3,20,13,10,6,14,11,11,2,6,10,1,1,1,1,6,6,1,1,9,1,1,1,1,1,4,2,2,2,2,2,2,0,1467.txt
1,3,1,1,8,0,1,1,4,0,1,7,4,5,5,3,2,3,2,2,2,2,2,2,3,6,3,2,3,3,3,3,4,2,4,3,4,11,11,3,3,3,11,3,3,9,3,3,7,3,3,2,2,2,2,2,0,1469.txt
1,3,1,1,8,0,6,3,6,0,1,7,5,4,3,3,2,5,2,2,2,2,2,2,3,20,11,10,12,14,11,11,14,5,15,10,7,13,13,6,11,5,10,5,5,5,5,5,4,2,0,2,1,2,2,1,1,1470.txt
5,1,1,1,8,0,1,1,4,15,1,7,5,3,5,4,2,3,2,4,2,2,2,2,3,13,4,3,8,8,2,2,3,18,3,9,9,2,2,8,0,2,8,8,8,8,8,0,13,2,1,0,0,1,1,1,1,1473.txt
1,1,1,1,7,0,1,1,4,0,1,7,4,5,5,3,2,3,2,2,2,2,2,2,3,26,18,9,5,13,12,5,15,10,14,5,6,5,5,5,5,4,5,5,5,5,5,4,12,4,3,2,2,2,2,1,1,1475.txt
1,3,1,1,8,0,6,1,4,0,1,7,4,4,3,4,2,3,2,2,2,2,2,2,3,20,11,10,6,6,11,11,14,23,15,10,7,3,3,6,4,4,4,4,4,4,4,4,12,0,0,1,1,2,2,2,0,1477.txt
1,1,1,1,8,0,1,1,4,0,1,7,5,5,5,3,2,3,2,2,2,2,2,2,3,20,9,8,6,9,9,8,9,8,10,10,8,6,9,7,7,6,6,7,6,6,6,6,1,4,4,2,2,2,2,2,0,1480.txt
1,3,1,1,8,0,3,16,5,0,1,7,4,4,3,4,2,3,2,2,2,2,2,2,3,20,11,10,12,9,11,8,9,5,7,6,17,10,10,6,11,5,7,9,7,4,5,4,11,0,0,1,1,2,2,1,1,1482.txt
5,1,1,1,8,0,1,1,4,0,1,7,5,3,5,3,2,3,2,4,2,2,2,2,3,29,4,3,8,2,2,2,3,18,3,9,9,2,2,8,8,2,8,8,8,8,8,7,4,6,1,0,0,0,1,0,2,1484.txt
5,1,1,1,8,0,1,1,4,0,1,7,4,4,5,5,2,3,2,4,2,3,2,2,3,11,4,3,8,8,2,2,3,20,3,9,9,2,1,8,0,2,8,8,8,8,8,0,2,6,2,1,1,0,0,0,2,1487.txt
1,3,1,1,8,0,6,3,6,0,1,7,4,4,3,3,2,3,2,2,2,2,2,2,3,20,11,10,6,6,11,11,14,6,7,6,7,3,3,6,4,4,4,4,4,4,4,4,12,4,4,1,1,2,2,2,0,1490.txt
1,3,1,1,10,0,1,1,4,0,1,7,4,5,5,3,2,3,2,2,2,2,2,2,3,20,11,10,6,6,6,11,7,6,15,6,7,6,9,6,6,7,7,6,6,6,6,5,12,4,4,2,2,2,2,2,0,1491.txt
1,1,1,1,10,0,1,3,4,3,1,8,4,4,3,4,2,3,2,2,2,3,2,2,3,29,1,1,1,8,1,2,1,18,3,1,1,1,1,1,1,1,1,1,1,1,1,1,1,2,2,0,1,0,0,1,1,1494.txt
1,3,1,1,8,0,1,3,4,0,1,7,10,5,3,5,2,6,2,2,2,2,2,2,3,20,9,8,12,9,11,8,9,3,10,6,17,13,9,6,11,5,10,9,5,5,5,6,2,2,4,2,1,2,2,1,1,1497.txt
1,1,1,1,4,0,1,1,4,0,1,7,4,4,5,3,2,3,2,2,2,2,2,2,3,29,4,3,8,2,2,2,11,14,3,2,11,2,2,9,0,2,8,10,8,8,1,0,2,1,1,1,1,0,0,2,0,1499.txt
1,3,1,1,8,0,1,1,4,0,1,7,4,5,5,3,2,3,2,2,2,2,2,2,3,20,11,10,6,6,6,11,7,6,15,6,7,8,8,6,6,6,7,9,10,7,7,5,6,4,2,2,2,2,2,2,0,1502.txt
1,3,1,1,8,0,4,1,6,0,1,7,10,4,5,5,2,3,2,2,2,2,2,2,3,20,11,10,6,12,11,12,12,22,10,10,17,6,9,7,7,6,6,7,6,6,1,5,1,4,2,1,1,2,1,2,0,1504.txt
1,3,1,1,3,0,4,1,5,0,1,7,5,4,3,4,2,3,2,2,2,2,2,2,3,28,6,5,5,5,5,5,15,5,6,5,2,5,5,5,5,5,5,5,5,1,1,5,2,4,0,2,1,2,2,1,1,1505.txt
1,3,1,1,3,0,1,1,4,0,1,7,4,3,3,3,2,3,2,2,2,2,2,2,3,20,11,10,6,6,11,11,7,23,15,6,7,9,6,6,6,6,7,6,7,7,7,5,7,4,4,2,2,2,2,2,0,1507.txt
1,3,1,1,8,0,3,3,5,0,1,7,10,4,3,3,2,3,2,2,2,2,2,2,3,20,11,10,12,14,11,11,12,5,7,6,7,13,9,6,11,5,7,9,7,6,5,5,12,4,2,1,1,2,2,1,1,1509.txt
4,1,1,1,4,0,1,1,4,0,1,7,5,3,5,4,2,3,2,2,2,2,2,2,3,29,4,3,8,2,2,2,3,20,3,2,10,2,2,10,0,2,8,8,8,8,8,7,13,1,1,0,0,0,1,0,2,1511.txt
4,1,1,1,22,0,3,1,5,0,1,7,4,4,5,4,2,3,2,4,2,2,2,2,3,29,4,3,8,8,2,2,3,18,3,9,10,2,2,10,0,2,8,8,8,8,8,8,13,1,0,0,1,0,0,0,2,1513.txt
1,1,1,1,17,0,1,1,0,0,1,7,10,5,5,5,2,3,2,2,2,2,2,2,3,8,4,3,8,2,2,2,3,8,3,9,11,2,2,9,0,2,8,10,0,8,0,0,4,1,2,0,1,0,0,2,0,1515.txt
1,3,1,1,8,0,1,11,4,0,1,7,4,4,5,5,2,3,2,2,2,2,2,2,3,20,11,10,10,15,11,6,12,13,15,10,17,9,6,6,11,7,7,9,10,7,6,5,1,4,2,2,1,2,1,2,1,1518.txt
1,3,1,1,4,0,6,1,4,0,1,7,10,4,3,4,2,3,2,2,2,2,2,2,3,20,11,10,6,6,11,11,13,23,15,10,7,13,13,6,11,6,10,7,6,7,7,5,12,4,0,1,1,2,2,2,0,1519.txt
4,1,1,1,8,0,1,15,4,0,1,7,4,4,5,3,2,3,2,2,2,2,2,2,3,30,4,3,8,2,2,2,3,19,3,9,10,2,2,8,0,2,8,8,8,8,8,0,13,1,1,0,1,0,0,0,2,1521.txt
1,1,1,1,10,0,1,1,4,0,1,7,4,5,5,3,2,3,2,2,2,2,2,2,3,20,7,6,6,9,9,8,9,12,12,6,16,7,7,6,6,7,7,9,10,6,6,6,2,4,4,2,2,2,2,2,0,1523.txt
1,1,1,1,22,0,1,1,4,0,1,7,5,5,5,5,2,3,2,2,2,2,2,2,3,20,7,6,6,9,9,8,9,12,12,6,16,6,13,6,6,4,4,4,4,4,4,4,12,4,4,2,2,2,2,2,0,1526.txt
1,3,1,1,3,0,1,15,4,0,1,7,5,5,5,4,2,3,2,2,2,2,2,2,3,20,11,10,6,12,11,6,12,22,10,6,17,13,9,6,11,8,7,9,4,4,4,1,1,0,0,2,2,2,2,2,0,1528.txt
1,1,1,1,9,0,1,1,4,0,1,7,6,3,5,5,2,3,2,2,2,2,2,2,3,27,18,9,5,5,12,5,15,11,14,5,6,5,5,1,1,5,5,1,1,1,1,2,1,2,0,2,1,2,2,1,1,1529.txt
1,3,1,1,8,0,1,1,4,0,1,7,4,4,5,3,2,3,2,2,2,2,2,2,3,13,5,4,4,4,4,4,5,4,5,4,5,3,3,4,4,4,4,4,4,5,4,4,4,4,4,1,1,2,1,2,0,1532.txt
1,3,1,1,3,0,1,1,4,0,1,7,5,5,5,4,2,3,2,2,2,2,2,2,3,20,11,10,6,6,11,11,13,23,10,10,7,6,6,6,6,6,7,6,1,1,1,1,1,4,2,2,2,2,2,2,0,1534.txt
1,3,1,1,9,0,6,18,4,5,1,7,5,5,3,4,2,3,2,2,2,2,2,2,3,26,20,9,5,5,13,5,15,11,6,5,6,5,5,5,5,5,5,5,5,5,1,4,2,2,4,2,2,2,2,1,1,1536.txt
1,3,1,1,8,0,1,1,4,0,1,7,5,5,5,3,2,3,2,2,2,2,2,2,3,2,5,4,4,4,4,4,5,4,5,4,5,3,3,4,4,4,4,4,4,4,4,4,12,4,4,2,1,2,1,2,0,1538.txt
1,3,1,1,8,0,1,1,4,0,1,7,4,3,5,3,2,3,2,2,2,2,2,2,3,20,11,10,6,6,11,11,7,6,7,6,7,11,11,6,6,8,7,9,7,7,7,5,11,4,4,2,2,2,2,2,0,1540.txt
1,3,1,1,8,0,1,1,4,0,1,7,4,4,5,3,2,3,2,2,2,2,2,2,3,20,11,6,10,15,11,6,7,12,10,6,17,7,7,6,11,7,7,9,10,5,6,6,11,4,4,1,1,2,2,2,1,1543.txt
4,1,1,1,8,0,1,24,4,0,1,7,5,5,5,4,2,3,2,2,2,2,2,2,3,29,4,3,8,2,2,2,11,20,3,9,10,2,2,9,0,2,8,8,8,8,8,7,13,1,1,0,0,0,0,0,2,1545.txt
1,1,1,1,1,1,1,1,2,1,1,7,4,4,1,1,2,3,2,2,2,2,2,2,3,20,9,8,12,9,11,7,8,20,8,7,8,6,9,7,7,5,6,1,1,1,1,1,2,2,4,1,1,2,2,1,1,1546.txt
1,3,1,1,8,0,1,15,4,0,1,7,5,3,5,4,2,3,2,2,2,2,2,2,3,20,11,10,6,12,11,6,13,22,12,6,17,13,9,6,7,7,6,7,4,7,4,4,11,4,4,2,2,2,2,2,0,1548.txt
1,3,1,1,3,0,1,1,4,0,1,7,5,5,5,4,2,3,2,2,2,2,2,2,3,20,11,10,6,12,6,6,13,22,10,10,16,6,9,6,6,7,6,7,6,6,6,5,1,4,0,2,2,2,2,2,0,1551.txt
1,3,1,1,10,0,6,1,4,0,1,7,4,4,5,3,2,3,2,2,2,2,2,2,3,20,11,10,6,6,6,11,14,6,7,6,7,3,3,6,4,4,4,4,4,4,4,4,0,4,0,1,1,2,2,2,0,1552.txt
1,3,1,1,8,0,1,1,4,0,1,7,10,5,5,3,2,3,2,2,2,2,0,0,0,20,0,10,6,6,11,11,14,6,15,6,7,10,10,6,6,8,7,9,7,7,7,5,12,4,3,2,2,2,2,2,0,1556.txt
1,3,1,1,4,0,1,18,4,0,1,7,4,4,5,4,2,3,2,2,2,2,2,2,3,6,3,2,3,3,3,3,4,2,13,3,4,8,8,3,3,10,11,3,3,9,3,9,0,0,0,1,1,2,2,2,0,1558.txt
1,1,1,1,8,0,1,1,4,0,1,7,10,5,5,3,2,3,2,2,2,2,2,2,3,20,7,6,6,9,9,8,9,12,12,6,16,6,13,6,6,6,10,7,6,7,6,6,7,4,4,2,2,2,2,2,0,1561.txt
1,3,1,1,8,0,1,1,4,0,1,7,4,3,5,3,2,3,2,2,2,2,2,2,3,6,3,2,3,3,3,3,4,2,13,3,4,10,12,3,10,10,3,11,3,3,12,9,10,3,3,2,2,2,2,2,0,1563.txt
1,3,1,1,26,0,3,1,5,0,1,7,4,4,3,3,2,3,2,2,2,2,2,2,3,20,11,10,6,6,6,11,7,6,7,6,7,3,3,4,4,4,4,4,4,4,4,4,12,0,0,1,1,2,2,2,0,1565.txt
1,3,1,1,10,0,6,1,4,0,1,7,4,4,5,3,2,3,2,2,2,2,2,2,3,20,11,10,10,14,6,12,12,13,10,6,17,9,9,6,6,7,6,9,7,6,6,1,1,0,0,1,1,2,2,2,1,1567.txt
1,3,1,1,8,0,1,1,4,0,1,7,5,3,5,3,2,3,2,2,2,2,2,2,3,3,8,7,7,7,7,7,8,7,8,7,8,7,7,7,7,7,6,7,6,6,6,6,11,4,4,2,2,2,2,2,0,1570.txt
1,1,1,1,8,0,1,1,4,0,1,7,5,5,5,4,2,3,2,2,2,2,2,2,3,20,7,6,6,9,9,8,9,12,12,6,16,6,9,7,7,8,10,7,6,7,6,6,12,4,4,2,2,2,2,2,0,1572.txt
1,3,1,1,8,0,1,1,4,0,1,7,4,4,3,5,2,3,2,2,2,2,2,2,3,20,11,10,6,6,11,11,7,6,7,6,2,6,13,6,6,8,10,9,6,7,6,5,12,4,0,1,1,2,2,2,0,1574.txt
1,3,1,1,8,0,1,1,4,0,1,7,4,5,5,3,2,3,2,2,2,2,2,2,3,20,11,10,6,12,11,6,7,7,12,6,8,7,7,6,11,7,7,6,6,6,6,5,11,4,4,2,2,2,2,2,0,1581.txt
1,3,1,1,8,0,3,25,5,0,1,7,4,4,5,3,2,3,2,2,2,2,2,2,3,20,11,10,6,14,11,11,12,13,7,6,7,7,7,6,11,7,7,9,7,7,6,5,11,0,0,1,1,2,2,2,1,1583.txt
1,3,1,1,8,0,1,1,4,0,1,7,5,5,5,4,2,3,2,2,2,3,2,2,3,20,7,6,6,9,9,8,9,12,12,6,16,3,3,7,4,4,4,4,4,4,4,1,1,4,4,2,2,2,1,2,0,1585.txt
1,1,1,1,8,0,6,1,4,0,1,7,4,5,5,5,2,3,2,2,2,2,2,2,3,1,4,3,11,2,2,2,3,18,3,9,10,2,2,9,0,2,8,10,0,8,11,0,9,1,1,0,0,0,1,1,1,1587.txt
1,1,1,1,8,0,1,1,4,0,1,7,5,5,5,3,2,3,2,2,2,2,2,2,3,20,7,6,6,9,9,8,9,7,8,7,8,6,9,7,7,7,6,7,6,6,6,6,11,4,4,2,2,2,2,2,0,1589.txt
1,3,1,1,8,0,3,1,5,0,1,7,4,4,3,3,2,3,2,2,2,2,2,2,3,20,13,10,6,6,11,11,12,6,10,6,7,11,11,6,6,6,7,6,7,7,1,5,1,0,0,1,1,2,2,2,0,1590.txt
1,1,1,1,10,0,1,1,4,0,1,7,4,4,5,3,2,3,2,2,0,0,0,0,0,0,0,3,8,2,2,2,3,14,3,2,11,2,2,9,0,2,8,10,0,8,0,0,9,1,1,0,1,0,0,2,1,1594.txt
1,3,1,1,8,0,1,1,4,0,1,7,5,5,3,3,2,3,2,2,2,2,2,2,3,20,11,10,6,6,11,11,13,6,10,6,7,12,12,4,4,4,4,4,4,4,4,4,12,4,3,2,2,2,2,2,0,1596.txt
1,1,1,1,8,0,1,1,4,0,1,7,4,4,5,3,2,3,2,2,2,2,2,2,3,20,7,6,6,9,9,8,9,12,12,6,16,10,12,6,6,8,7,9,10,7,7,6,11,4,3,1,1,2,2,2,0,1598.txt
1,3,1,1,8,0,1,15,4,0,1,7,6,3,5,3,2,3,2,2,2,2,2,2,3,20,11,10,10,15,11,6,14,13,15,6,17,10,10,4,4,4,4,4,4,4,4,4,12,4,3,2,2,2,2,2,1,1600.txt
5,1,1,1,8,0,1,1,4,0,1,7,5,5,5,5,2,3,2,4,2,2,2,2,3,18,4,3,8,2,2,2,3,18,3,9,9,2,2,8,0,2,8,8,8,8,8,7,13,1,1,0,0,0,0,0,2,1602.txt
1,3,1,1,8,0,1,1,4,0,1,7,5,3,5,3,2,3,2,2,2,2,2,2,3,20,11,10,6,14,11,11,14,13,7,6,7,8,8,6,6,8,7,9,7,7,4,5,7,4,4,2,2,2,2,2,1,1604.txt
1,1,1,1,8,0,1,1,4,0,1,7,4,4,5,5,2,3,2,2,2,2,2,2,3,29,4,3,8,2,2,2,3,19,3,9,13,2,2,9,0,2,8,10,8,8,11,0,9,1,0,1,1,0,1,0,0,1605.txt
4,1,1,1,8,0,1,1,4,0,1,7,7,4,5,4,2,3,2,2,2,2,2,2,3,29,0,3,8,8,2,2,3,18,3,2,10,2,2,10,0,2,8,8,8,8,8,0,5,1,1,0,1,0,0,0,1,1608.txt
1,1,1,1,8,0,1,1,4,0,1,7,4,5,5,3,2,3,2,2,2,2,2,2,3,29,4,3,8,2,2,2,3,14,3,9,11,2,2,9,0,2,8,10,0,8,0,7,9,1,1,0,0,0,0,2,0,1610.txt
1,3,1,1,8,0,1,6,4,0,1,7,5,5,5,4,2,3,2,2,2,2,2,2,3,13,5,4,4,4,4,4,5,4,5,4,5,3,3,4,4,4,4,4,4,4,4,4,12,4,4,2,2,2,1,2,0,1612.txt
1,3,1,1,8,0,1,1,4,0,1,7,4,4,3,3,2,3,2,2,2,2,2,2,3,20,11,10,6,6,6,11,7,6,7,6,7,9,3,6,6,4,4,4,4,4,4,4,0,4,3,1,1,2,2,2,0,1615.txt
1,3,1,1,5,0,1,1,0,0,1,7,4,4,3,4,2,3,2,2,2,2,2,2,3,0,5,4,4,4,4,4,5,4,5,4,5,3,3,4,4,4,4,4,4,4,4,4,12,0,0,1,1,2,2,2,0,1616.txt
1,3,1,1,8,0,1,1,4,0,1,7,4,4,5,3,2,3,2,2,2,2,2,2,3,13,5,4,4,4,4,4,5,4,5,4,5,3,3,4,4,4,4,4,4,4,4,4,4,4,4,1,1,2,2,2,0,1618.txt
1,3,1,1,8,0,1,1,4,0,1,7,5,5,5,3,2,3,2,2,2,2,2,2,3,20,11,10,6,14,11,11,13,13,15,6,7,6,13,6,6,8,10,9,7,5,7,5,1,4,4,2,2,2,1,2,1,1622.txt
1,3,1,1,8,0,1,18,4,0,1,7,4,4,5,3,2,3,2,2,2,2,2,2,3,20,11,10,6,6,11,11,7,6,7,6,7,13,13,6,11,6,7,6,10,7,4,5,11,4,4,1,1,2,2,2,0,1623.txt
1,3,1,1,8,0,1,1,4,0,1,7,4,3,5,3,2,3,2,2,2,2,2,2,3,20,11,10,6,6,11,11,7,6,15,6,7,8,8,6,6,6,7,6,7,7,7,5,11,4,4,2,1,2,2,2,0,1626.txt
1,3,1,1,8,0,1,1,4,0,1,7,4,3,5,3,2,3,2,2,2,2,2,2,3,20,11,10,6,6,11,6,7,22,7,6,17,6,9,7,7,6,6,7,6,6,4,5,0,4,4,2,1,2,2,2,0,1629.txt
1,1,1,1,8,0,1,15,4,0,1,7,4,5,5,3,2,3,2,2,2,2,2,2,3,18,4,3,8,2,2,2,3,20,3,9,18,2,2,9,0,2,8,8,8,8,8,7,0,1,1,0,0,0,0,0,0,1631.txt
1,3,1,1,8,0,1,1,4,0,1,7,5,3,3,3,2,3,2,2,2,2,2,2,3,20,11,10,6,6,6,11,12,6,10,6,7,6,13,6,6,6,7,6,7,6,7,5,4,4,4,2,2,2,2,2,0,1632.txt
5,1,1,1,8,0,6,1,4,0,1,7,7,5,5,5,2,3,2,4,2,2,2,2,3,2,4,3,8,2,2,2,11,18,3,9,2,2,2,8,0,2,8,8,8,8,8,0,13,6,1,0,1,0,0,0,2,1637.txt
5,1,1,1,8,0,1,1,4,0,1,7,5,5,5,4,2,3,2,4,2,2,2,2,3,29,4,3,8,8,2,2,3,18,3,9,9,2,2,8,0,2,8,8,8,8,8,0,3,6,1,0,0,0,0,0,2,1639.txt
1,3,1,1,3,0,1,3,0,0,1,7,4,3,5,4,2,3,2,2,2,2,2,2,3,20,11,10,12,15,6,11,7,5,10,6,7,13,6,6,11,0,7,5,5,1,1,6,2,0,0,2,1,2,2,1,1,1641.txt
1,3,1,1,8,0,1,20,4,0,1,7,5,3,5,3,2,3,2,2,2,2,2,2,3,4,8,7,7,7,7,7,8,7,8,7,8,7,7,7,7,7,6,7,6,6,6,6,11,4,4,2,2,2,2,1,1,1643.txt
4,1,1,1,10,0,1,1,4,0,1,7,4,4,5,3,2,3,2,4,2,2,2,2,3,29,4,3,8,2,2,2,11,20,3,9,9,2,2,8,0,2,8,8,8,8,8,0,13,1,1,1,1,0,0,0,2,1645.txt
5,1,1,1,8,0,1,15,4,0,1,7,10,5,5,5,2,3,2,4,2,2,2,2,3,29,4,3,8,8,2,2,3,20,3,9,9,2,2,8,0,2,8,8,8,8,8,7,13,6,1,0,0,0,0,0,2,1647.txt
1,3,1,1,8,0,1,1,4,0,1,7,5,5,3,5,2,3,2,2,2,2,2,2,3,20,11,10,6,6,11,11,13,6,10,10,7,13,13,6,11,6,10,6,7,7,7,5,2,4,2,2,2,2,2,2,0,1650.txt
1,3,1,1,8,0,6,1,6,0,1,7,4,4,5,5,2,3,2,2,2,2,2,2,3,20,11,10,6,12,6,6,7,22,12,6,16,6,13,6,6,7,7,9,6,7,6,5,11,0,0,1,1,2,2,2,0,1652.txt
1,3,1,1,8,0,1,1,4,0,1,7,4,3,5,3,2,3,2,2,2,2,2,2,3,6,3,2,3,3,3,10,4,2,4,3,15,12,4,3,3,9,9,11,3,3,3,9,0,3,3,2,1,2,2,2,0,1654.txt
1,3,1,1,8,0,1,1,4,0,1,7,4,5,5,3,2,3,2,2,2,2,2,2,3,20,11,10,6,12,9,6,14,22,12,6,16,6,9,6,6,6,7,7,10,6,6,6,12,4,4,2,2,2,2,2,0,1655.txt
1,1,1,1,8,0,1,12,4,0,1,7,5,3,5,3,2,3,2,2,2,2,2,2,3,29,4,3,8,8,2,2,3,20,3,9,10,2,2,9,0,2,8,10,8,8,11,0,9,1,2,0,0,0,0,0,1,1657.txt
1,3,1,1,7,0,1,1,4,0,1,7,5,5,5,3,2,3,2,2,2,2,2,2,3,20,11,10,6,6,6,6,13,6,15,6,17,9,13,6,6,6,10,6,10,7,7,5,11,4,4,2,2,2,2,2,0,1660.txt
1,3,1,1,8,0,6,1,6,0,1,7,4,4,5,3,2,3,2,2,2,4,2,2,3,20,13,12,6,6,11,11,12,6,10,10,17,13,9,6,1,8,10,2,1,1,1,1,1,0,0,1,1,2,1,2,0,1662.txt
1,1,1,1,8,0,1,1,4,0,1,7,4,5,5,3,2,3,2,2,2,2,2,2,3,29,4,3,8,8,2,2,11,20,3,9,10,2,2,9,0,2,8,8,8,8,8,7,9,1,1,0,1,0,1,0,0,1663.txt
1,3,1,1,10,0,1,1,4,0,1,7,4,4,5,3,2,3,2,2,2,2,2,2,3,20,11,10,6,12,6,6,14,22,12,6,16,6,9,6,7,7,10,7,4,4,4,4,12,0,0,1,1,2,2,2,0,1666.txt
1,1,1,1,8,0,1,1,4,0,1,7,5,3,5,3,2,3,2,2,2,2,2,2,3,20,7,6,6,9,11,8,9,12,12,6,16,9,9,6,6,8,7,5,5,5,5,6,12,4,4,2,2,1,1,2,1,1667.txt
1,3,1,1,8,0,1,1,4,0,1,7,5,5,5,3,2,3,2,2,2,2,2,2,3,20,11,10,6,15,6,6,7,22,12,6,16,10,10,6,6,8,7,9,10,4,4,6,11,4,4,2,2,2,2,2,0,1669.txt
1,3,1,1,8,0,1,1,4,0,1,7,4,4,3,3,2,3,2,2,2,2,2,2,3,20,11,10,6,6,11,11,7,6,10,6,7,8,8,6,6,6,7,6,7,7,7,5,6,4,2,1,1,2,2,2,0,1671.txt
1,3,1,1,10,0,1,1,4,0,1,7,4,3,5,3,2,3,2,2,2,2,2,2,3,20,11,10,10,15,6,6,7,13,7,6,17,6,9,6,6,7,7,7,6,6,6,6,11,4,4,2,2,2,2,2,1,1673.txt
1,3,1,1,8,0,1,1,4,0,1,7,4,5,5,3,2,3,2,2,2,2,2,2,3,20,11,10,6,12,9,6,7,12,12,6,16,6,13,6,6,6,4,4,4,4,4,4,12,4,4,2,1,2,2,2,0,1676.txt
4,1,1,1,10,0,1,1,0,0,1,7,4,5,5,3,2,3,2,4,2,2,2,2,3,10,4,3,8,8,2,2,3,20,3,9,10,2,2,8,0,2,8,8,8,8,1,0,2,1,1,0,0,0,1,0,1,1677.txt
5,1,2,3,8,0,1,1,4,7,1,1,5,5,5,3,5,3,2,4,2,2,2,2,4,29,12,3,8,8,2,9,10,19,9,8,9,2,2,8,8,2,8,8,8,8,9,7,4,7,5,3,3,0,1,0,2,1680.txt
1,1,1,1,8,0,1,13,4,0,1,7,10,4,5,5,2,3,2,2,2,2,2,2,3,29,4,3,2,8,2,2,3,18,3,9,10,2,2,8,0,2,8,0,0,0,11,7,1,2,1,0,1,0,1,1,1,1682.txt
4,1,1,1,6,0,1,1,4,0,1,7,4,5,5,5,2,3,2,2,2,2,2,2,3,4,4,3,8,2,2,2,3,20,3,9,10,2,2,8,0,2,8,8,8,8,8,0,13,1,1,0,1,0,0,1,1,1684.txt
1,3,1,1,8,0,1,1,4,0,1,7,10,3,5,3,2,3,2,2,2,2,2,2,3,6,14,13,9,11,3,3,4,2,11,11,14,9,6,3,10,9,9,11,3,3,12,3,10,3,3,2,2,2,2,2,0,1686.txt
1,3,1,1,8,0,1,1,4,0,1,7,4,3,3,3,2,3,2,2,2,2,2,2,3,20,11,10,6,6,11,11,7,6,15,6,7,6,6,6,11,6,10,6,7,7,7,5,11,4,4,2,2,2,2,2,0,1692.txt
1,3,1,1,8,0,1,1,4,0,1,7,4,5,5,3,2,3,2,2,2,2,2,2,3,20,11,10,10,14,6,11,7,13,7,6,7,11,10,6,6,8,7,9,7,7,4,5,7,4,0,2,2,2,2,2,1,1694.txt
1,3,1,1,8,0,1,3,4,0,1,7,4,5,5,3,2,3,2,2,2,2,2,2,3,6,3,2,3,3,3,3,4,2,13,3,4,12,4,3,3,10,11,3,9,3,3,9,7,3,0,2,2,2,2,2,0,1696.txt
1,3,1,1,8,0,1,1,4,0,1,7,5,5,5,3,2,3,2,2,2,2,2,2,3,20,11,10,6,14,11,6,13,6,15,6,17,9,6,6,11,8,7,9,10,7,7,5,12,4,4,2,2,2,2,2,0,1698.txt
5,1,1,1,8,0,1,1,4,15,1,5,5,5,5,3,6,3,2,4,2,2,2,2,2,18,12,3,8,2,2,2,11,20,3,9,9,2,2,8,8,2,8,8,8,8,9,0,13,5,5,3,0,0,0,0,2,1699.txt
1,3,1,1,8,0,1,1,4,0,1,7,4,5,5,3,2,3,2,2,2,2,2,2,3,20,11,10,6,14,11,11,14,13,7,6,7,7,7,6,6,7,7,7,10,6,6,5,12,4,4,2,1,2,2,2,1,1701.txt
4,1,1,1,8,0,1,1,4,0,1,7,5,3,5,4,2,3,2,4,2,2,2,2,3,29,4,3,8,2,2,2,3,20,3,9,10,2,2,8,0,2,8,8,8,8,8,7,13,1,1,0,0,0,0,0,1,1705.txt
1,3,1,1,8,0,1,1,4,0,1,7,4,3,5,3,2,3,2,2,2,2,2,2,3,20,11,6,10,9,6,6,8,7,8,7,8,7,7,6,6,7,6,9,6,6,5,6,2,4,4,2,2,2,2,1,1,1707.txt
1,3,1,1,8,0,1,1,4,0,1,7,7,3,3,3,2,3,2,2,2,2,2,2,3,20,11,10,6,6,11,11,7,6,7,6,7,8,8,6,11,6,7,6,7,6,7,5,11,4,4,2,2,2,2,2,0,1709.txt
1,3,1,1,8,0,1,1,4,0,1,7,5,3,5,5,2,3,2,2,2,2,2,2,3,20,11,10,6,14,11,6,12,13,10,10,17,10,10,6,6,8,7,9,10,5,7,5,11,4,4,2,2,2,2,2,1,1715.txt
4,1,1,1,8,0,1,1,4,0,1,7,4,4,5,4,2,3,2,2,2,2,2,2,3,30,4,3,8,2,2,2,3,20,3,9,10,2,2,10,0,2,8,8,8,8,8,7,13,1,0,0,1,0,0,0,1,1717.txt
1,3,1,1,8,0,2,3,4,0,1,7,4,3,3,3,2,3,2,2,2,2,2,2,3,22,3,2,3,3,3,10,4,2,4,3,4,11,11,3,3,3,11,3,9,9,3,3,7,3,3,2,2,2,2,2,0,1720.txt
1,3,1,1,26,0,1,1,4,0,1,7,4,4,5,3,2,3,2,2,2,2,2,2,3,20,11,10,6,6,6,11,7,6,7,6,7,8,8,6,6,6,7,6,7,7,7,5,11,4,4,1,1,2,2,2,0,1723.txt
1,3,1,1,8,0,1,1,4,0,1,7,4,4,5,3,2,3,2,2,2,2,2,2,3,6,3,2,3,3,3,3,4,2,13,3,15,4,4,3,3,10,3,1,1,1,1,9,2,3,0,1,1,2,2,2,0,1725.txt
1,3,1,1,8,0,1,1,4,0,1,7,4,4,5,3,2,3,2,2,2,2,2,2,3,6,3,2,3,3,3,3,4,2,4,3,4,12,4,3,3,10,3,11,3,3,3,3,10,3,3,1,1,2,2,2,1,1727.txt
4,1,1,1,8,0,1,1,4,0,1,7,4,5,5,4,2,3,2,0,0,0,0,0,0,18,0,3,8,2,2,2,3,18,3,2,13,2,2,9,0,2,8,8,8,8,8,8,13,1,1,0,0,0,0,0,2,1728.txt
1,3,1,1,8,0,1,18,4,0,1,7,4,5,5,3,2,3,2,2,2,2,2,2,3,20,11,10,6,14,11,11,7,6,10,6,7,8,8,6,11,8,7,9,10,7,7,5,6,4,2,2,2,2,2,2,0,1732.txt
1,3,1,1,8,0,1,1,4,0,1,7,5,3,3,3,2,3,2,2,2,2,2,2,3,20,11,10,6,6,11,11,14,6,15,6,7,6,13,6,6,6,10,6,7,4,4,4,12,4,4,2,2,2,2,2,0,1734.txt
5,1,1,3,10,0,1,1,4,10,1,3,4,5,5,3,6,3,2,4,2,2,2,2,2,29,12,3,8,2,2,2,10,20,3,8,9,2,2,8,8,2,8,8,8,8,9,0,13,7,5,3,3,0,0,0,2,1735.txt
4,1,1,1,7,0,1,1,4,0,1,7,4,3,5,3,2,3,2,2,2,2,2,2,3,4,4,3,8,2,2,2,3,20,3,9,13,2,2,9,0,2,8,8,8,8,8,0,9,1,1,0,1,0,0,0,0,1737.txt
1,3,1,1,3,0,1,18,4,0,1,7,5,3,5,4,2,3,2,2,2,2,2,2,3,20,11,10,6,6,11,11,13,23,15,6,7,13,9,7,7,6,6,7,6,6,6,5,4,4,4,2,2,2,2,2,0,1739.txt
1,3,1,1,3,0,6,1,4,0,1,7,4,4,5,5,2,3,2,2,2,2,2,2,3,20,13,10,6,12,6,12,7,22,10,10,16,6,13,6,6,6,1,6,10,7,7,1,2,4,2,1,1,2,2,2,0,1744.txt
1,3,1,1,20,0,5,1,6,0,1,7,10,4,5,4,2,3,2,2,2,2,2,2,3,20,11,10,6,14,6,11,12,13,10,10,7,6,13,6,6,8,10,9,1,1,1,1,1,0,0,1,1,2,1,2,1,1745.txt
1,3,1,1,8,0,1,1,4,0,1,7,5,3,5,3,2,3,2,2,2,2,2,2,3,5,8,7,7,7,7,7,8,7,8,7,8,7,7,7,7,7,6,4,4,4,4,4,12,4,4,2,2,2,1,2,0,1747.txt
5,1,1,1,8,0,1,1,4,0,1,7,5,5,5,4,2,3,2,4,2,2,2,2,3,13,4,3,8,2,2,2,3,18,3,9,9,2,2,8,8,2,8,8,8,8,8,7,13,6,1,0,0,0,0,0,2,1749.txt
1,3,1,1,3,0,6,1,4,0,1,7,5,3,5,4,2,3,2,0,0,0,0,0,0,20,0,10,6,12,11,6,13,22,12,6,16,6,13,6,6,6,7,6,10,7,7,5,3,0,0,2,2,2,1,2,0,1751.txt
1,3,1,1,10,0,6,1,4,0,1,7,5,5,3,3,2,3,2,2,2,2,2,2,3,20,11,10,6,6,6,11,14,6,7,6,7,6,13,6,6,6,10,6,6,4,4,5,12,4,4,2,2,2,1,2,0,1755.txt
1,3,1,1,26,0,1,1,4,0,1,7,4,4,3,3,2,3,2,2,2,2,2,2,3,20,11,10,6,6,6,11,7,6,7,6,7,8,8,6,6,6,10,6,7,6,7,5,11,4,4,1,1,2,2,2,0,1759.txt
4,1,1,1,8,0,1,15,4,0,1,7,10,5,5,5,2,3,2,2,2,2,2,2,3,8,4,3,8,8,2,2,3,8,3,9,11,2,2,9,0,2,8,8,8,8,8,7,9,1,1,0,0,0,0,2,0,1762.txt
1,3,1,1,3,0,6,3,4,0,1,7,2,4,3,4,2,2,2,2,2,2,2,2,3,20,11,10,12,14,11,11,13,5,7,6,2,10,10,6,2,5,2,9,7,2,2,2,6,2,2,1,1,2,2,1,1,1764.txt
4,1,1,1,8,0,6,1,6,0,1,7,4,4,5,3,2,3,2,2,2,2,2,2,3,2,4,3,8,2,2,2,3,18,3,2,10,2,2,10,0,2,8,8,8,8,8,7,13,1,0,1,1,1,1,0,2,1765.txt
1,1,1,1,8,0,6,3,4,27,1,7,5,5,3,5,2,3,2,2,2,2,2,2,3,20,9,8,12,9,11,8,9,18,15,6,17,3,3,4,4,5,4,4,4,5,5,4,12,2,4,2,1,2,2,1,1,1769.txt
1,3,1,1,8,0,1,1,4,0,1,7,5,5,5,4,2,3,2,2,2,2,2,2,3,20,11,10,6,12,9,6,8,7,8,7,8,6,9,7,7,7,6,7,6,6,6,6,5,4,0,2,2,2,1,2,0,1771.txt
1,3,1,1,8,0,1,3,4,0,1,7,4,5,3,3,2,3,2,2,2,2,2,2,3,20,11,10,6,6,11,11,12,6,10,10,7,13,6,6,11,6,7,6,7,6,7,5,3,4,0,2,1,2,2,2,0,1774.txt
1,3,1,1,8,0,3,1,5,0,1,7,4,4,5,4,2,3,2,2,2,2,2,2,3,20,11,10,6,12,11,6,7,22,12,10,17,6,9,6,7,7,6,7,6,7,6,5,11,4,4,1,1,1,1,2,0,1775.txt
1,3,1,1,8,0,1,1,4,0,1,7,10,3,5,3,2,3,2,2,2,2,2,2,3,20,11,10,6,14,11,11,7,6,10,6,7,11,11,6,6,6,7,6,7,7,7,5,2,4,4,2,2,2,2,2,0,1778.txt
5,1,1,1,8,0,1,1,4,0,1,7,5,5,5,3,2,3,2,4,2,2,2,2,3,18,4,3,8,2,2,2,3,18,3,9,9,2,2,8,0,2,8,8,8,8,8,7,0,6,0,0,1,0,1,0,1,1780.txt
1,3,1,1,8,0,1,18,4,0,1,7,5,3,5,3,2,3,2,2,2,2,2,2,3,20,11,10,6,6,11,11,7,6,7,10,7,9,13,6,11,4,4,4,4,4,4,4,0,4,4,2,2,2,2,2,0,1783.txt
1,3,1,1,10,0,1,1,0,0,1,7,4,4,5,5,2,3,2,2,2,2,2,2,3,20,11,10,10,15,6,6,7,12,12,6,17,3,3,6,4,4,4,4,4,4,4,4,12,4,4,1,1,2,2,2,1,1784.txt
5,1,1,1,10,0,1,1,4,0,1,7,5,3,5,3,2,3,2,4,2,2,2,2,3,29,4,3,8,8,2,2,3,20,3,9,9,2,2,8,8,2,8,8,8,8,8,1,1,5,2,0,0,0,1,0,2,1787.txt
1,1,1,1,8,0,1,15,4,0,1,7,5,4,5,3,2,3,2,2,2,2,2,2,3,29,4,3,11,2,2,2,3,20,3,9,10,2,2,9,0,2,8,12,0,0,11,7,7,1,2,0,1,0,0,1,1,1789.txt
5,1,1,1,8,0,1,1,4,0,1,7,5,3,5,3,2,3,2,4,2,3,2,2,3,29,4,3,8,8,2,2,3,20,1,9,9,2,2,8,0,1,1,1,1,1,1,1,1,1,2,0,0,0,0,0,2,1791.txt
1,3,1,1,18,0,6,1,4,0,1,7,4,4,5,5,2,3,2,2,2,2,2,2,3,20,11,10,6,6,6,11,14,23,15,6,7,6,13,6,6,6,7,6,6,4,4,5,12,4,4,1,1,2,2,2,0,1794.txt
5,1,1,1,26,0,1,0,4,0,2,2,4,1,2,2,0,0,0,0,0,0,0,0,0,18,0,3,8,2,2,2,3,19,3,2,9,2,2,8,0,2,8,8,8,8,8,0,13,1,1,0,0,0,0,0,2,1798.txt
1,3,1,1,8,0,8,18,5,0,1,7,10,4,3,4,2,3,2,2,2,2,2,2,3,26,6,5,5,5,5,5,6,5,6,5,6,5,5,5,5,5,5,5,5,5,5,4,6,0,0,1,1,2,2,1,1,1800.txt
4,1,1,1,8,0,6,1,6,0,1,7,4,4,5,3,2,3,2,4,2,2,2,2,3,15,4,3,8,2,2,2,3,20,3,2,10,2,2,10,0,2,8,8,8,8,8,0,0,0,0,1,1,0,1,0,2,1801.txt
1,3,1,1,10,0,1,1,4,0,1,7,4,3,5,3,2,3,2,2,2,2,2,2,3,6,14,14,9,11,3,3,4,2,11,11,14,10,10,11,10,9,9,11,3,3,12,3,10,3,3,2,2,2,2,2,0,1803.txt
1,3,1,1,10,0,8,1,7,0,1,7,4,4,5,5,2,3,2,2,2,2,2,2,3,20,11,10,6,6,6,6,7,6,7,6,17,3,3,4,4,4,4,4,4,4,4,4,0,0,0,1,1,2,2,2,0,1805.txt
1,3,1,1,10,0,6,1,6,0,1,7,4,4,3,3,2,3,2,2,2,2,2,2,3,20,11,10,6,6,6,11,7,6,15,10,7,6,6,6,6,6,10,6,7,6,7,5,4,4,2,1,1,2,2,2,0,1808.txt
5,1,4,3,10,0,1,18,4,2,1,1,5,5,5,3,5,3,2,4,2,2,3,2,4,1,19,11,8,2,8,9,16,16,9,12,9,14,2,8,8,2,8,8,8,8,13,0,0,7,5,3,3,0,0,0,2,1810.txt
1,1,1,1,3,0,1,1,4,0,1,7,5,5,5,4,2,3,2,2,2,2,2,2,3,29,4,3,8,2,2,2,3,18,3,9,10,2,2,9,0,2,8,8,8,8,8,0,9,1,1,0,0,0,0,0,0,1812.txt
1,3,1,1,19,0,6,1,9,0,1,7,4,4,5,3,2,3,2,2,2,2,2,2,3,20,11,10,10,15,6,6,7,13,7,6,17,10,10,6,6,8,7,9,10,7,7,5,11,0,0,1,1,2,2,1,1,1814.txt
1,3,1,1,8,0,1,1,4,0,1,7,4,4,3,3,2,5,2,2,2,2,2,2,3,20,11,10,6,6,11,11,12,6,15,10,7,6,13,6,6,6,10,6,7,7,7,5,4,4,2,1,1,2,2,2,0,1816.txt
1,3,1,1,3,0,6,1,4,0,1,7,5,5,3,3,2,6,2,2,2,2,2,2,3,27,6,5,5,5,5,5,6,5,2,5,6,5,5,5,5,5,5,5,5,5,5,5,1,2,2,2,2,2,2,1,1,1818.txt
4,1,1,1,8,0,1,1,4,0,1,7,4,4,5,5,2,3,2,2,2,2,2,2,3,29,4,3,8,8,2,2,3,20,3,2,2,2,2,10,0,2,8,8,8,8,8,7,13,1,1,0,1,0,0,0,2,1820.txt
5,1,1,1,8,0,1,1,4,0,1,7,10,5,5,3,2,3,2,4,2,2,2,2,3,29,4,3,8,8,2,2,3,20,3,9,9,2,2,8,8,2,8,8,8,8,1,7,2,6,2,0,0,1,1,0,2,1824.txt
1,3,1,1,8,0,1,15,4,0,1,7,4,3,5,3,2,3,2,2,2,2,2,2,3,20,11,10,6,6,11,6,7,22,7,6,17,10,10,6,11,6,7,6,10,7,7,5,12,4,4,2,2,2,2,2,0,1825.txt
1,1,1,1,8,0,1,1,4,0,1,7,5,5,5,5,2,3,2,2,2,0,0,0,0,18,0,3,8,2,2,2,3,20,3,2,18,2,2,9,0,2,8,8,8,8,8,0,0,1,1,0,0,0,0,0,0,1827.txt
1,3,1,1,8,0,4,1,6,0,1,7,5,4,5,4,2,3,2,2,2,2,2,2,3,27,6,5,5,5,12,5,15,5,14,5,6,5,5,5,5,5,5,5,5,5,5,5,2,4,4,2,1,2,1,1,1,1830.txt
1,1,1,1,10,0,1,1,4,0,1,7,4,4,5,3,2,3,2,2,2,2,2,2,3,20,7,6,10,9,6,8,9,12,12,6,17,6,9,6,6,8,7,9,10,7,6,6,2,4,2,1,1,2,2,1,1,1831.txt
1,3,1,1,10,0,1,1,4,0,1,7,4,3,5,3,2,3,2,2,2,2,2,2,3,20,11,10,6,6,6,11,7,6,15,6,7,12,12,6,6,6,7,6,7,6,7,5,11,4,3,2,2,2,2,2,0,1833.txt
1,3,1,1,8,0,1,1,4,0,1,7,5,3,5,4,2,3,2,2,2,2,2,2,3,20,11,10,6,6,11,11,13,6,7,6,7,9,6,6,6,6,7,6,4,4,4,4,12,4,0,2,2,2,2,2,0,1836.txt
1,3,1,1,8,0,1,1,4,0,1,7,4,4,3,3,2,3,2,2,2,2,2,2,3,20,11,10,6,6,11,11,7,6,7,6,7,8,8,6,6,6,7,6,7,7,7,5,12,4,4,1,1,2,2,2,0,1838.txt
1,1,1,1,3,0,6,3,6,0,1,7,4,4,3,5,2,5,2,2,2,4,2,2,3,16,4,3,2,8,2,2,2,1,1,9,1,1,1,1,1,1,1,1,1,1,1,1,1,2,2,1,1,0,0,1,1,1840.txt
1,3,1,1,8,0,1,18,4,0,1,7,4,4,5,3,2,3,2,2,2,2,2,2,3,14,8,7,7,7,7,7,8,7,8,7,8,7,7,7,7,7,6,7,6,1,1,1,1,4,2,1,1,2,2,1,1,1842.txt
1,3,1,1,8,0,1,1,4,0,1,7,4,4,3,3,2,3,2,2,2,2,2,2,3,20,11,10,6,6,11,11,7,6,7,6,7,8,8,6,6,6,7,6,7,7,7,5,11,4,4,1,1,2,2,2,0,1844.txt
1,3,1,1,3,0,1,1,4,0,1,7,4,3,5,3,2,3,2,2,2,2,2,2,3,20,13,10,6,14,11,11,12,23,10,10,7,11,10,6,6,8,7,9,7,1,1,5,2,0,0,2,2,2,2,2,0,1847.txt
1,3,1,1,8,0,1,1,4,0,1,7,5,3,5,3,2,3,2,2,2,2,0,0,0,20,0,6,6,12,9,6,7,12,10,10,16,9,6,6,6,7,1,1,1,1,1,1,1,4,2,2,2,2,2,2,0,1850.txt
1,3,1,1,8,0,1,1,4,0,1,7,4,5,3,3,2,3,2,2,2,3,2,2,3,20,11,12,6,6,11,11,12,6,2,10,7,9,6,6,6,6,1,1,1,1,1,1,1,4,2,2,2,2,2,2,0,1851.txt
4,1,1,1,10,0,7,1,0,0,1,7,5,3,5,3,2,3,2,2,2,3,2,2,3,29,4,3,8,8,2,2,3,20,3,9,10,2,2,8,0,2,1,1,1,1,1,1,1,1,2,0,1,0,0,1,1,1854.txt
1,3,1,1,8,0,1,1,4,0,1,7,5,3,5,4,2,3,2,2,2,2,2,2,3,20,11,10,6,12,11,6,13,22,12,6,17,6,9,6,6,6,10,7,6,6,6,5,0,4,4,2,2,1,1,2,0,1855.txt
1,3,1,1,8,0,1,1,4,0,1,7,5,3,5,3,2,3,2,2,2,2,2,2,3,20,11,10,6,6,11,11,12,6,10,10,7,9,6,6,11,6,7,2,2,1,1,1,1,4,2,2,2,2,2,2,0,1858.txt
1,3,1,1,4,0,1,1,4,0,1,7,5,3,5,4,2,3,2,2,2,3,2,2,3,20,11,10,6,12,6,12,12,22,10,10,17,9,13,6,6,6,7,6,10,1,1,1,1,4,2,2,2,2,1,2,0,1860.txt
1,1,1,1,8,0,1,1,4,0,1,7,4,4,5,3,2,3,2,2,2,2,2,2,3,3,4,3,8,8,2,2,3,20,3,9,10,2,2,10,0,2,8,8,8,8,11,7,9,1,0,1,1,0,1,1,1,1861.txt
5,1,1,1,8,0,6,1,4,6,1,8,4,4,5,5,6,3,2,4,2,2,2,2,2,18,4,3,8,2,2,2,3,20,3,9,9,2,2,8,8,2,8,8,8,8,9,0,13,7,5,1,1,0,0,1,1,1863.txt
1,3,1,1,8,0,1,1,4,0,1,7,4,5,5,3,2,3,2,2,2,2,2,2,3,20,11,10,6,6,11,11,14,6,15,6,8,6,7,6,6,7,7,7,10,4,4,5,12,4,4,2,2,2,1,2,0,1865.txt
1,3,1,1,8,0,1,6,4,0,1,7,4,5,5,5,2,3,2,2,2,2,2,2,3,20,11,10,6,6,11,11,7,6,15,6,7,11,8,6,11,6,7,6,7,7,7,5,11,4,4,2,2,2,2,2,0,1867.txt
1,1,1,1,4,0,1,1,4,0,1,7,4,4,5,3,2,3,2,2,2,2,2,2,3,6,3,15,9,3,10,3,4,2,4,3,15,10,10,11,10,9,9,11,9,3,12,3,5,0,0,1,1,2,2,1,1,1870.txt
1,3,1,1,8,0,1,11,4,0,1,7,5,3,5,3,2,3,2,2,2,2,2,2,3,20,11,10,6,12,11,6,14,6,7,10,17,7,7,6,11,7,6,9,1,1,1,1,2,4,2,2,2,2,1,2,0,1872.txt
1,1,1,1,8,0,1,1,4,15,1,7,5,3,5,3,2,3,2,2,2,2,2,2,3,15,4,3,11,2,2,2,3,20,3,9,10,2,2,8,0,2,8,12,0,0,11,0,7,2,1,0,0,1,1,1,1,1874.txt
1,3,1,1,8,0,1,1,4,0,1,7,4,4,5,3,2,3,2,2,2,2,2,2,3,3,15,14,9,11,3,3,4,2,11,3,14,7,7,3,10,9,1,11,9,3,12,1,2,3,2,1,1,2,2,2,0,1876.txt
1,3,1,1,8,0,6,1,4,0,1,7,5,5,5,3,2,3,2,2,2,4,2,2,3,20,11,12,6,6,11,11,12,23,10,10,7,9,9,1,1,6,7,6,7,7,7,1,1,4,2,2,1,2,1,2,0,1879.txt
1,3,1,1,8,0,1,1,4,0,1,7,5,5,3,4,2,3,2,2,2,2,2,2,3,20,11,10,6,6,11,11,13,23,7,6,7,13,13,6,11,6,10,6,7,4,4,5,12,4,4,2,2,2,2,2,0,1880.txt
4,1,1,1,8,0,1,1,4,0,1,7,4,4,5,3,2,3,2,2,2,2,2,2,3,1,4,3,8,2,2,2,3,20,3,9,10,2,2,10,0,2,8,8,8,8,8,7,13,1,1,1,1,0,0,0,2,1884.txt
1,3,1,1,8,0,1,1,4,0,1,7,5,5,5,3,2,3,2,2,2,3,2,2,3,20,11,12,6,6,6,11,12,6,10,10,7,9,1,1,1,1,1,1,1,1,1,1,1,4,2,2,1,2,2,2,0,1885.txt
1,3,1,1,8,0,1,1,4,0,1,7,4,4,3,3,2,3,2,2,2,2,2,2,3,20,11,10,6,14,6,11,12,6,15,6,7,8,8,6,6,6,7,6,7,7,7,5,2,4,2,1,1,2,2,2,0,1887.txt
1,3,1,1,8,0,7,1,4,0,1,7,4,3,5,5,2,3,2,2,2,3,2,2,3,20,13,12,6,6,11,11,12,23,10,10,7,6,13,1,1,6,1,1,1,1,1,1,1,4,2,2,2,2,2,2,0,1890.txt
1,3,1,1,8,0,3,1,5,0,1,7,4,4,5,3,2,3,2,2,2,2,2,2,3,6,3,2,3,3,3,3,4,2,4,3,15,4,4,3,3,3,3,11,3,3,3,3,10,0,0,1,1,2,2,2,0,1892.txt
1,1,1,1,8,0,3,1,5,0,1,7,4,4,5,3,2,3,2,2,2,2,2,2,3,29,4,3,2,8,2,2,3,10,3,9,12,2,2,2,0,2,8,0,0,0,0,0,14,1,0,1,1,0,0,1,1,1894.txt
1,1,1,1,8,0,6,15,4,0,1,7,5,5,5,4,2,3,2,2,2,2,2,2,3,20,7,6,6,9,9,8,9,12,10,10,16,13,9,7,7,6,10,7,1,1,1,6,1,4,2,2,2,2,1,2,0,1898.txt
1,1,1,1,8,0,1,13,4,5,1,7,5,3,5,4,2,3,2,2,2,2,2,2,3,29,4,3,11,8,2,2,3,18,3,9,10,2,2,8,0,2,8,12,0,0,11,1,1,0,0,0,1,1,1,1,1,1900.txt
1,3,1,1,7,0,1,1,4,0,1,7,4,4,5,3,2,3,2,2,2,2,2,2,3,20,11,10,6,14,6,6,14,6,7,6,17,9,9,6,6,6,7,6,4,7,4,4,12,4,4,1,1,2,2,2,0,1901.txt
1,3,1,1,8,0,1,1,4,0,1,7,10,3,5,3,2,3,2,2,2,3,2,2,3,20,11,10,10,15,11,12,12,7,8,7,8,7,7,6,6,7,1,1,1,1,1,1,1,4,2,2,1,2,2,2,1,1903.txt
1,3,1,1,8,0,1,1,4,0,1,0,5,1,2,2,0,0,0,0,0,0,0,0,0,20,0,10,6,12,9,12,8,7,8,7,8,7,7,7,7,7,6,7,6,1,1,1,1,4,2,2,2,2,1,2,0,1906.txt
1,1,1,1,8,0,3,0,5,0,0,0,4,1,2,2,0,0,0,0,0,0,0,0,0,1,0,3,8,8,2,2,3,18,3,2,13,2,2,9,0,2,8,10,0,8,11,0,0,0,0,1,1,0,1,1,1,1908.txt
1,3,1,1,8,0,1,1,4,0,1,7,4,4,5,5,2,3,2,2,2,2,2,2,3,20,11,10,6,12,11,6,7,22,12,6,17,6,9,6,6,8,10,7,4,4,4,4,11,4,4,2,1,2,2,2,0,1911.txt
1,3,1,1,8,0,6,19,6,0,1,7,12,5,3,5,2,7,2,2,2,4,2,2,3,27,6,5,5,5,13,1,1,1,1,1,1,1,1,1,1,1,1,1,1,1,1,1,1,2,2,2,1,2,2,1,1,1913.txt
1,1,1,1,8,0,1,1,4,0,1,7,5,3,5,3,2,3,2,2,2,2,2,2,3,20,7,6,6,9,9,8,9,7,8,7,8,6,7,7,7,7,6,7,6,6,1,1,1,4,2,2,2,2,1,2,0,1914.txt
1,3,1,1,10,0,1,1,4,0,1,7,2,5,3,3,2,7,2,0,0,0,0,0,0,27,0,5,5,5,5,5,1,5,6,5,6,10,10,5,5,1,1,5,5,5,5,1,1,2,2,2,2,2,2,1,1,1916.txt
1,1,1,1,8,0,1,1,4,0,1,7,5,5,5,3,2,3,2,2,2,2,2,2,3,5,4,3,2,2,2,2,3,20,3,9,10,2,2,9,0,2,8,0,0,0,11,0,14,2,1,0,0,0,1,1,1,1919.txt
1,3,1,1,8,0,1,1,4,0,1,7,4,4,5,3,2,3,2,2,2,2,2,2,3,26,17,5,5,13,12,5,15,5,14,5,6,5,5,5,5,5,5,5,5,5,5,6,11,2,4,1,1,2,2,1,1,1921.txt
1,1,1,1,3,0,1,1,4,0,1,7,4,4,5,3,2,3,2,2,2,3,2,2,3,29,4,3,11,8,2,2,11,10,3,9,12,2,2,2,0,2,8,1,1,1,1,1,2,1,2,1,1,0,0,0,1,1923.txt
1,3,1,1,8,0,1,1,4,0,1,7,10,5,5,4,2,3,2,2,2,2,2,2,3,20,11,10,6,12,9,6,14,22,12,6,16,6,13,6,6,6,10,6,10,7,6,6,12,4,4,2,2,2,1,2,0,1926.txt
1,3,1,1,8,0,1,1,4,0,1,7,4,5,5,3,2,3,2,2,2,2,2,2,3,20,11,10,6,12,11,6,8,7,8,7,8,6,9,7,7,7,6,7,6,6,6,5,1,4,2,2,2,2,1,2,0,1928.txt
1,3,1,1,8,0,3,1,5,0,1,7,4,4,3,3,2,3,2,2,2,4,2,2,3,20,11,12,6,6,11,11,12,6,10,10,7,8,8,6,6,6,7,6,1,1,1,1,2,4,2,1,1,2,2,2,0,1930.txt
4,1,1,1,8,0,1,15,4,0,1,7,4,4,5,4,2,3,2,2,2,2,2,2,3,5,4,3,8,8,2,2,3,20,3,9,10,2,2,8,0,2,8,8,8,8,8,0,13,0,0,1,1,0,0,0,1,1932.txt
1,3,1,1,8,0,1,1,4,0,1,7,4,5,3,3,2,3,2,2,2,2,2,2,3,20,11,10,6,6,6,11,14,6,7,6,7,6,9,6,6,6,10,6,7,6,7,5,12,4,4,2,2,2,2,2,0,1934.txt
1,3,1,1,10,0,1,1,4,0,1,7,5,5,5,5,2,3,2,2,2,2,2,2,3,20,11,10,6,12,9,6,12,12,12,6,16,6,9,6,6,8,10,7,10,6,6,6,11,4,4,2,2,2,2,2,0,1937.txt
1,3,1,1,8,0,1,11,4,0,1,7,4,5,5,3,2,3,2,2,2,2,2,2,3,20,11,10,6,6,11,11,7,6,15,6,7,8,8,6,11,6,7,6,7,7,7,5,7,4,4,2,2,2,2,2,0,1938.txt
1,1,1,1,8,0,1,15,4,0,1,7,5,5,5,5,2,3,2,2,2,2,2,2,3,20,7,6,6,9,9,8,9,12,10,6,16,13,9,7,7,6,10,7,6,6,6,6,5,4,2,2,2,2,2,2,0,1941.txt
1,3,1,1,8,0,6,3,6,0,1,7,4,4,5,4,2,3,2,2,2,2,2,2,3,20,11,10,6,14,7,7,8,7,8,7,8,7,7,6,7,7,6,7,6,6,6,5,11,0,0,1,1,2,2,2,0,1942.txt
1,3,1,1,8,0,1,3,4,0,1,7,4,4,3,3,2,3,2,2,2,2,2,2,3,20,11,10,6,14,11,11,7,6,10,6,7,10,10,6,11,8,7,9,7,7,7,5,11,4,4,2,1,2,2,2,0,1944.txt
5,1,1,1,8,0,6,1,6,21,1,7,5,4,5,3,2,3,2,4,2,5,2,2,3,29,4,3,8,8,2,2,3,1,1,1,1,1,1,1,1,1,1,1,1,1,1,1,1,5,2,1,1,0,1,0,1,1947.txt
1,3,1,1,10,0,1,1,4,0,1,7,5,3,5,3,2,3,2,2,2,2,2,2,3,20,11,10,6,6,6,6,13,6,15,6,17,6,13,6,6,6,10,7,10,7,7,5,12,4,4,2,2,1,1,2,0,1948.txt
1,3,1,1,0,0,6,1,8,0,1,0,1,1,2,2,0,0,0,0,0,0,0,0,0,20,0,10,10,15,6,6,7,13,15,6,2,6,6,7,2,0,2,7,6,6,6,5,3,0,0,1,1,2,2,2,1,1951.txt
1,3,1,1,8,0,1,1,4,0,1,7,5,5,5,5,2,3,2,2,2,3,2,2,3,20,7,6,6,12,9,12,12,1,1,1,1,1,1,1,1,1,1,1,1,1,1,1,1,4,2,2,2,2,2,2,0,1952.txt
1,3,1,1,8,0,8,1,10,0,1,7,4,4,5,5,2,3,2,2,2,2,2,2,3,20,11,10,6,6,11,11,12,6,10,10,7,9,6,6,6,6,7,6,10,4,4,5,5,0,0,1,1,2,2,2,0,1954.txt
1,1,1,1,8,0,1,1,4,0,1,7,4,5,5,4,2,3,2,2,2,2,2,2,3,29,4,3,8,8,2,2,3,18,3,9,13,2,2,9,0,2,8,10,0,8,11,0,1,1,1,0,0,1,1,1,1,1956.txt
1,3,1,1,7,0,1,1,4,0,1,7,4,5,5,3,2,3,2,2,2,3,2,2,3,20,13,12,6,6,6,11,12,6,1,10,7,6,9,6,6,1,1,1,1,1,1,1,1,4,2,2,2,2,2,2,0,1959.txt
1,3,1,1,8,0,6,1,6,0,1,7,2,4,3,4,2,7,2,2,2,4,2,2,3,27,6,5,5,5,5,5,6,9,1,5,6,5,5,5,5,1,1,5,1,1,1,1,1,2,2,2,1,2,2,1,1,1961.txt
1,3,1,1,8,0,1,1,4,0,1,7,5,5,3,3,2,3,2,2,2,2,2,2,3,20,11,10,6,6,11,11,12,6,10,10,7,13,13,6,11,6,10,7,6,2,1,1,1,4,2,2,2,2,2,2,0,1964.txt
1,1,1,1,8,0,1,1,4,0,1,7,5,3,5,4,2,3,2,2,0,0,0,0,0,29,0,3,11,8,2,2,3,20,3,2,13,2,2,9,0,2,8,12,0,0,1,1,1,2,2,0,0,1,1,1,1,1965.txt
1,1,1,1,8,0,1,1,4,0,1,7,4,4,5,3,2,3,2,2,2,2,2,2,3,20,7,6,6,9,9,8,9,7,8,7,8,6,9,7,7,7,6,7,6,6,6,6,11,0,0,1,1,2,2,2,0,1970.txt
1,1,1,1,8,0,1,1,4,0,1,7,10,3,5,3,2,3,2,2,2,2,2,2,3,10,4,3,11,8,2,2,11,19,3,9,18,2,2,9,0,2,8,12,0,0,11,0,14,1,1,0,0,0,0,1,1,1973.txt
4,1,1,1,8,0,1,1,4,0,1,7,5,5,5,3,2,3,2,4,2,3,2,2,3,23,4,3,8,8,2,2,3,18,3,9,10,2,2,10,0,2,8,8,8,8,8,0,1,1,1,0,0,0,0,0,2,1974.txt
1,3,1,1,8,0,1,15,4,0,1,7,10,3,5,3,2,3,2,2,2,2,2,2,3,20,13,10,6,12,11,12,12,6,10,10,17,10,10,6,11,8,7,1,1,1,1,1,2,4,2,2,2,2,1,2,0,1976.txt
1,3,1,1,8,0,1,1,4,0,1,7,5,3,5,3,2,3,2,2,2,2,2,2,3,4,8,7,7,7,7,7,8,7,8,7,8,7,7,7,7,7,6,7,6,6,6,6,11,4,4,2,2,2,2,2,1,1979.txt
1,3,1,1,8,0,1,0,4,0,0,0,5,1,2,2,0,0,0,0,0,0,0,0,0,20,0,10,6,15,11,6,7,22,10,6,17,6,9,6,6,8,10,9,6,7,6,5,11,4,4,2,2,2,2,2,0,1981.txt
1,3,1,1,8,0,8,11,10,0,1,7,4,4,3,3,2,5,2,2,2,2,2,2,3,20,11,10,6,6,11,11,12,6,15,6,7,13,6,6,11,6,10,6,6,6,7,5,11,0,0,1,1,2,2,2,0,1983.txt
1,3,1,1,8,0,6,17,4,24,1,7,4,4,5,4,2,3,2,2,2,4,2,2,3,20,9,8,12,9,11,8,9,3,10,10,7,13,13,6,11,5,7,9,7,1,1,1,2,2,2,2,1,2,2,1,1,1984.txt
1,3,1,1,9,0,6,1,6,0,1,7,2,4,3,4,2,7,2,2,2,4,2,2,3,27,6,5,1,5,1,1,1,1,1,1,1,1,1,1,1,1,1,1,1,1,1,1,1,0,0,1,1,2,2,1,1,1986.txt
5,1,1,1,8,0,3,1,5,17,1,7,4,4,5,3,2,3,2,4,2,2,2,2,3,23,4,3,8,8,2,2,3,18,3,2,9,2,2,8,0,2,8,8,8,8,8,0,13,6,0,1,1,1,1,1,1,1989.txt
1,3,1,1,8,0,1,1,4,0,1,7,4,4,5,5,2,3,2,2,2,2,2,2,3,6,3,15,9,3,3,3,4,2,4,3,15,4,12,11,3,9,9,11,3,3,12,3,10,3,3,1,1,2,2,1,1,1991.txt
1,3,1,1,8,0,1,1,4,0,1,7,4,4,5,4,2,3,2,2,2,2,2,2,3,20,11,10,6,14,11,11,8,7,8,7,8,7,7,7,1,1,1,1,1,1,1,1,1,4,0,1,1,1,1,2,1,1992.txt
1,3,1,1,5,0,6,1,4,0,1,7,4,4,5,3,2,3,2,2,2,2,2,2,3,20,11,10,6,6,11,11,12,23,7,6,7,10,10,6,6,8,7,9,7,7,7,5,11,4,0,1,1,2,2,2,0,1995.txt
1,3,1,1,3,0,1,1,4,0,1,7,4,5,5,5,2,3,2,2,2,2,2,2,3,20,13,10,6,6,6,11,7,23,10,10,7,4,12,6,6,6,7,6,10,7,7,5,3,4,2,2,2,2,2,2,0,1997.txt
1,3,1,1,8,0,1,1,4,0,1,7,4,4,5,3,2,3,2,2,2,2,2,2,3,20,11,10,10,9,11,6,9,9,12,6,8,3,3,7,7,5,4,4,4,4,5,4,0,4,4,1,1,1,1,2,1,1999.txt
1,1,1,1,26,0,1,1,4,12,1,7,4,4,5,3,2,3,2,2,2,2,2,2,3,29,4,3,2,2,2,2,11,20,3,9,10,2,2,9,0,2,8,0,0,0,11,0,7,2,1,0,1,0,0,1,1,2001.txt
5,1,1,1,8,0,1,1,4,0,1,7,4,4,5,5,2,3,2,4,2,2,2,2,3,29,4,3,8,8,2,2,3,20,3,2,9,2,2,8,8,2,8,8,8,8,8,0,3,6,2,0,1,0,0,0,2,2005.txt
1,3,1,1,8,0,6,18,6,0,1,7,4,4,5,3,2,3,2,2,2,2,2,2,3,2,5,4,4,4,4,4,5,4,5,4,5,3,3,4,4,4,4,4,4,4,4,4,12,4,4,1,1,2,2,2,0,2007.txt
1,3,1,1,8,0,1,1,4,0,1,7,4,5,5,5,2,3,2,2,2,2,2,2,3,20,11,10,6,6,11,12,13,22,10,10,2,6,13,1,1,1,1,1,1,1,1,1,1,4,2,2,2,2,2,2,0,2008.txt
1,1,1,1,8,0,7,3,4,3,1,8,10,3,5,4,2,3,2,2,2,3,2,2,3,29,4,3,2,8,2,2,3,20,3,9,10,2,2,8,0,2,0,0,2,2,2,2,1,2,0,0,3,0,0,1,1,2012.txt
1,3,1,1,8,0,1,3,4,0,1,7,2,4,3,5,2,5,2,2,2,3,2,2,3,20,13,12,12,14,11,1,1,1,1,1,1,1,1,6,11,1,1,1,1,1,1,1,1,2,2,2,1,2,2,1,1,2015.txt
1,3,1,1,10,0,1,15,0,0,1,7,4,4,5,3,2,3,2,2,2,2,2,2,3,20,11,10,6,15,6,12,12,12,10,10,16,13,7,6,11,0,6,9,10,5,1,1,1,4,2,1,1,2,2,2,0,2017.txt
1,3,1,1,8,0,1,1,4,0,1,7,4,4,5,3,2,3,2,2,2,2,2,2,3,20,11,10,6,6,11,12,7,6,15,6,17,10,10,6,11,7,7,9,10,7,6,5,5,4,2,1,1,2,2,2,0,2020.txt
1,3,1,1,10,0,1,1,4,0,1,7,4,3,5,3,2,3,2,2,2,2,2,2,3,20,11,10,6,6,6,11,7,6,15,10,7,11,8,6,6,6,7,6,7,7,7,5,5,4,2,2,2,2,2,2,0,2022.txt
1,3,1,1,8,0,1,1,4,0,1,7,4,5,5,3,2,3,2,2,2,2,2,2,3,20,11,6,6,12,9,7,8,7,8,7,8,7,7,7,7,4,4,4,4,4,4,4,12,4,4,2,2,2,1,2,0,2024.txt
1,3,1,1,8,0,1,1,4,0,1,7,4,4,5,3,2,3,2,2,2,2,2,2,3,20,13,10,6,6,11,11,12,6,10,10,17,7,7,6,6,7,7,7,1,1,1,1,1,0,0,2,1,2,2,2,0,2026.txt
4,1,1,1,8,0,1,1,4,0,1,7,10,3,5,3,2,3,2,2,2,2,2,2,3,29,4,3,8,2,2,2,3,20,3,9,10,2,2,10,0,2,8,8,8,8,8,0,0,1,1,0,0,0,0,0,2,2029.txt
5,1,1,1,8,0,1,1,4,21,1,7,5,3,5,4,2,3,2,0,0,0,0,0,0,18,0,3,8,2,2,2,11,18,3,2,9,2,2,8,8,2,8,8,8,8,8,7,13,6,1,0,0,0,1,1,1,2031.txt
1,3,1,1,25,0,1,1,4,0,1,7,4,4,5,3,2,3,2,2,2,2,2,2,3,20,13,10,6,6,11,11,12,23,10,10,7,8,8,6,6,6,1,1,1,1,1,1,1,0,0,1,1,2,2,2,0,2032.txt
1,3,1,1,8,0,1,1,4,0,1,7,4,3,5,3,2,3,2,2,2,2,2,2,3,4,8,7,7,7,7,7,8,7,8,7,8,7,7,7,7,7,6,2,2,2,2,2,11,4,4,2,2,2,2,2,0,2034.txt
1,3,1,1,8,0,1,1,4,0,1,7,4,4,5,3,2,3,2,2,2,2,2,2,3,20,11,10,6,6,11,11,7,6,7,6,17,9,6,6,6,6,7,6,4,6,4,4,11,4,4,2,1,2,2,2,0,2037.txt
5,1,1,1,8,0,1,1,4,14,1,5,5,5,5,4,6,3,2,4,2,2,2,2,2,29,12,3,8,8,2,2,3,18,3,9,9,2,2,8,8,2,8,8,8,8,13,8,4,7,2,3,3,0,1,0,2,2038.txt
5,1,1,3,8,0,1,1,4,23,2,2,4,1,2,2,0,0,0,0,0,0,0,0,0,29,0,3,8,8,2,2,10,18,3,8,9,2,2,8,8,2,8,8,8,8,9,7,13,7,0,1,1,0,1,1,1,2040.txt
1,1,1,1,8,0,4,1,5,0,1,7,4,4,5,3,2,3,2,2,2,2,2,2,3,26,18,9,1,13,12,5,15,15,14,5,6,5,5,5,5,5,5,5,5,5,5,6,11,4,0,1,1,2,2,1,1,2043.txt
1,3,1,1,8,0,1,1,4,0,1,7,4,5,5,3,2,3,2,2,2,2,2,2,3,20,11,10,10,15,11,6,14,13,15,6,7,11,11,6,6,8,7,9,7,7,7,5,12,4,4,2,2,2,2,1,1,2045.txt
1,1,1,1,3,0,1,1,4,0,1,7,10,5,5,5,2,3,2,2,2,2,2,2,3,20,7,6,6,9,9,8,9,12,12,6,16,6,13,6,6,8,6,7,6,7,4,4,4,4,4,2,2,2,1,2,0,2049.txt
4,1,1,1,8,0,1,24,4,0,1,7,5,5,5,3,2,3,2,4,2,2,2,2,3,29,4,3,8,8,2,2,3,19,3,9,10,2,2,10,0,2,8,8,8,8,1,0,1,1,1,0,0,0,0,0,2,2052.txt
1,3,1,1,18,0,6,1,6,0,1,7,4,4,5,3,2,3,2,2,2,2,2,2,3,20,11,10,10,15,6,6,14,13,7,6,17,7,7,6,6,7,6,9,6,5,5,5,12,0,0,1,1,2,1,1,1,2053.txt
1,3,1,1,8,0,1,1,4,0,1,7,4,4,5,3,2,3,2,2,2,2,2,2,3,20,11,10,6,14,11,6,12,23,15,10,17,9,9,6,6,8,7,9,10,6,6,5,5,4,2,2,1,1,1,2,0,2055.txt
1,3,1,1,8,0,1,1,4,0,1,7,4,4,5,5,2,3,2,2,2,2,2,2,3,20,11,10,6,6,11,12,12,23,10,10,17,6,9,6,6,6,7,6,10,7,7,5,1,0,0,1,1,2,2,2,0,2057.txt
1,3,1,1,8,0,6,1,6,0,1,7,4,4,3,4,2,3,2,2,2,2,2,2,3,6,16,2,3,3,3,3,4,2,13,3,4,12,4,3,3,10,11,3,9,9,3,9,5,0,0,1,1,2,2,2,0,2060.txt
1,3,1,1,7,0,6,1,6,0,1,7,4,4,5,5,2,3,2,2,2,4,2,2,3,20,13,12,6,6,6,11,12,6,10,10,7,7,7,6,6,1,1,1,1,1,1,1,1,0,0,1,1,2,2,2,0,2062.txt
1,1,1,1,8,0,6,1,4,0,1,7,5,3,5,4,2,3,2,2,2,2,2,2,3,20,7,6,6,9,9,12,9,12,10,6,16,6,9,7,7,6,6,7,6,6,6,1,1,4,2,2,2,1,1,2,0,2066.txt
1,1,1,1,8,0,1,1,4,0,1,7,4,4,5,3,2,3,2,2,2,2,2,2,3,29,4,3,8,8,2,2,3,20,3,9,10,2,2,10,0,2,8,10,0,8,11,7,7,1,1,1,1,1,1,1,1,2067.txt
1,1,1,1,8,0,1,1,4,0,1,7,10,4,5,3,2,3,2,2,2,2,2,2,3,24,4,3,8,8,2,2,3,19,3,9,10,2,2,9,0,2,8,10,0,8,11,1,1,1,2,1,1,0,1,0,1,2069.txt
1,3,1,1,4,0,7,1,0,0,1,7,1,4,5,5,2,3,2,2,2,2,2,2,3,20,11,10,6,12,6,6,12,22,12,6,16,6,9,6,6,0,10,7,6,7,6,6,4,4,4,2,1,2,2,2,0,2072.txt
1,3,1,1,8,0,1,1,4,0,1,7,5,5,5,5,2,3,2,0,0,0,0,0,0,20,0,10,6,6,11,11,12,6,10,6,17,6,7,6,6,7,7,6,10,6,7,1,2,4,4,2,2,2,2,2,0,2074.txt
1,3,1,1,3,0,6,1,6,0,1,7,4,4,5,4,2,3,2,2,2,2,2,2,3,20,13,10,6,14,11,11,12,23,10,10,7,6,6,6,6,1,1,1,1,1,1,1,1,0,0,1,1,2,2,2,0,2078.txt
1,3,1,1,8,0,1,1,4,0,1,7,4,5,5,3,2,3,2,2,2,2,2,2,3,20,11,10,6,14,11,6,7,6,15,6,17,6,9,6,6,7,10,9,4,6,4,4,12,4,4,2,2,2,2,2,0,2080.txt
1,1,1,1,8,0,1,1,4,0,1,7,5,5,5,3,2,3,2,2,2,2,2,0,0,29,0,3,8,8,2,2,3,18,3,2,11,2,2,9,0,2,8,10,0,8,11,0,9,1,1,0,0,0,0,2,1,2083.txt
1,3,1,1,8,0,1,8,4,0,1,7,5,3,5,3,2,3,2,2,2,2,2,2,3,20,11,10,6,6,11,11,7,6,15,10,7,13,9,6,11,6,7,6,7,7,6,5,2,4,2,2,2,2,2,2,0,2085.txt
1,3,1,1,8,0,6,1,4,0,1,7,4,4,5,5,2,3,2,2,2,2,2,2,3,20,13,10,6,12,9,6,12,12,12,10,8,6,9,7,7,7,10,7,6,2,2,2,4,4,4,1,1,2,2,2,0,2087.txt
1,3,1,1,8,0,1,1,4,0,1,7,5,3,5,3,2,3,2,2,2,2,2,2,3,20,11,10,6,6,11,11,7,23,10,6,7,13,13,6,11,6,10,7,7,7,7,5,2,4,2,2,2,2,2,2,0,2090.txt
1,3,1,1,8,0,1,1,4,0,1,7,10,5,5,3,2,3,2,2,2,2,2,2,3,20,13,10,6,6,11,11,12,6,10,10,7,6,9,6,6,6,7,7,10,6,6,1,1,4,2,2,2,2,2,2,0,2092.txt
1,3,1,1,9,0,6,1,8,0,1,7,10,3,5,4,2,3,2,2,2,2,2,2,3,28,18,9,5,5,12,5,15,10,14,5,6,5,5,5,5,0,5,5,5,5,5,6,3,0,0,2,2,1,1,1,1,2093.txt
1,3,1,1,8,0,7,1,4,0,1,7,7,3,3,4,2,4,2,2,2,4,2,2,3,27,6,5,5,5,5,5,2,1,1,5,1,1,1,1,1,1,1,2,1,1,1,1,1,4,2,2,2,2,2,1,1,2096.txt
1,3,1,1,8,0,3,15,5,0,1,7,4,4,5,4,2,3,2,2,2,2,2,2,3,20,11,10,6,12,11,6,7,22,7,6,17,13,9,6,11,7,7,7,10,6,6,5,11,0,0,1,1,2,2,2,0,2098.txt
1,3,1,1,8,0,6,1,6,0,1,7,10,4,3,4,2,3,2,2,2,4,2,2,0,21,0,15,3,1,1,1,1,2,1,1,1,1,1,1,1,3,11,1,1,1,1,1,1,0,0,2,1,1,1,1,1,2099.txt
4,1,1,1,8,0,1,1,4,0,1,7,5,5,5,3,2,3,2,4,2,2,2,2,3,23,4,3,8,8,2,2,11,18,3,9,10,2,2,8,0,2,8,8,8,8,8,7,13,1,1,0,0,0,1,0,2,2101.txt
1,3,1,1,8,0,1,1,4,0,1,7,5,5,5,4,2,3,2,2,2,2,2,2,3,20,11,10,6,6,11,11,14,6,10,6,17,6,3,6,6,4,4,4,4,4,4,4,1,4,0,2,2,2,2,2,0,2103.txt
4,1,1,1,8,0,1,1,4,0,1,7,4,4,5,5,2,3,2,2,2,2,2,2,3,29,4,3,8,2,2,2,3,18,3,9,10,2,2,10,0,2,8,8,8,8,8,7,13,1,1,0,1,0,1,0,2,2105.txt
1,1,1,1,8,0,1,1,4,0,1,7,10,5,5,3,2,3,2,2,2,2,2,2,3,29,4,3,8,8,2,2,3,20,3,9,10,2,2,9,0,2,8,8,8,8,8,0,2,1,2,0,0,0,0,0,0,2107.txt
1,3,1,1,8,0,1,6,4,0,1,7,5,5,5,3,2,3,2,2,2,2,2,2,3,20,11,10,6,6,11,11,14,6,10,6,7,13,13,6,11,1,1,1,1,1,1,1,2,4,2,2,2,2,2,2,0,2110.txt
1,3,1,1,8,0,6,1,4,0,1,7,4,5,5,3,2,3,2,2,2,2,2,2,3,20,11,10,6,14,11,6,14,6,15,6,17,6,13,7,7,6,6,7,6,6,6,5,12,4,2,2,1,2,2,2,0,2113.txt
1,1,1,1,8,0,1,1,4,0,1,7,4,5,5,5,2,3,2,2,2,2,2,2,3,20,7,6,6,9,9,8,9,7,8,7,2,6,9,7,7,7,2,7,6,1,1,1,2,4,4,2,2,2,2,2,0,2114.txt
5,1,1,1,8,0,1,1,4,0,1,7,5,3,5,3,2,3,2,4,2,2,2,2,3,29,4,3,8,8,2,2,3,20,3,9,9,2,2,8,0,2,8,8,8,8,8,0,13,6,1,0,0,1,1,0,1,2117.txt
1,1,1,1,8,0,1,1,4,0,1,7,10,4,5,3,2,3,2,2,2,2,2,2,3,20,7,6,6,9,9,8,9,12,12,10,16,6,13,7,7,8,7,7,10,7,7,6,6,4,2,1,1,2,2,2,0,2119.txt
1,3,1,1,8,0,1,1,4,0,1,7,5,3,5,3,2,3,2,2,2,2,2,2,3,20,11,10,6,6,11,12,7,6,10,6,17,7,7,6,6,7,7,9,10,1,1,5,2,4,3,2,2,2,2,2,0,2121.txt
1,3,1,1,8,0,6,1,6,0,1,7,12,4,3,5,2,7,2,2,2,4,2,2,3,27,6,5,1,5,13,5,2,1,1,1,1,1,1,1,1,1,1,2,2,1,1,1,1,2,2,2,1,2,2,1,1,2122.txt
4,1,1,1,3,0,7,1,4,0,1,7,5,3,5,4,2,3,2,4,2,2,2,2,3,29,4,3,8,8,2,2,3,20,3,9,10,2,2,10,0,2,8,8,8,8,8,7,13,1,1,0,0,0,0,0,2,2125.txt
1,3,1,1,8,0,1,1,4,0,1,7,6,3,5,3,2,3,2,2,2,2,2,2,3,20,11,10,6,6,11,12,13,22,10,6,17,6,9,6,6,6,6,7,6,7,1,1,2,4,4,2,2,2,2,2,0,2126.txt
1,3,1,1,10,0,1,1,0,0,1,7,4,5,5,3,2,3,2,2,2,2,2,2,3,20,11,10,6,14,6,6,7,6,7,6,17,6,9,6,6,7,10,6,10,6,6,5,12,4,4,2,2,2,2,2,0,2129.txt
1,3,1,1,3,0,3,1,5,0,1,7,4,4,5,5,2,3,2,2,2,2,2,2,3,20,11,10,10,14,6,6,7,13,15,10,17,6,6,6,6,8,10,2,2,2,2,2,2,4,0,1,1,2,2,1,1,2130.txt
1,3,1,1,8,0,1,1,4,0,1,7,4,3,5,3,2,3,2,2,2,2,2,2,3,20,7,6,6,9,9,6,9,12,10,10,16,6,1,6,6,7,6,7,6,6,6,6,1,4,2,2,2,1,1,2,0,2133.txt
1,3,1,1,3,0,1,4,4,0,1,7,5,5,5,4,2,3,2,2,2,2,2,2,3,20,11,10,6,12,9,12,12,12,10,10,16,13,13,6,11,6,7,1,1,1,1,6,1,0,0,2,2,2,2,2,0,2135.txt
5,1,1,1,8,0,1,1,4,0,1,7,10,5,5,3,2,3,2,4,2,2,2,2,3,29,4,3,8,2,2,2,3,20,3,9,9,2,2,8,0,2,8,8,8,8,8,0,6,6,2,0,0,1,1,0,1,2137.txt
1,1,1,1,8,0,1,15,4,0,1,7,4,3,5,3,2,3,2,2,2,2,2,2,3,29,4,3,8,2,2,2,3,21,3,9,18,2,2,9,0,2,8,10,8,8,0,7,9,1,1,0,0,0,0,0,0,2139.txt
1,3,1,1,10,0,1,1,0,0,1,7,10,5,5,3,2,3,2,0,0,0,0,0,0,20,0,10,6,12,9,6,14,22,10,10,16,6,13,6,6,7,6,6,6,6,6,5,6,4,4,2,2,2,1,2,0,2141.txt
1,3,1,1,8,0,1,3,4,0,1,7,5,3,5,3,2,3,2,2,2,2,2,2,3,20,11,10,6,6,11,11,14,6,15,6,7,13,9,7,7,6,10,7,6,6,6,5,4,4,4,2,2,2,2,2,0,2142.txt
1,3,1,1,4,0,6,3,6,0,1,7,2,4,3,4,2,2,2,2,2,2,2,2,3,20,13,10,12,1,1,1,1,5,2,1,1,1,1,1,1,5,7,1,1,1,1,1,2,2,2,1,1,2,1,1,1,2145.txt
4,1,1,1,8,0,1,7,4,0,1,7,5,3,5,4,2,3,2,4,2,2,2,2,3,29,4,3,8,8,2,2,3,20,3,9,9,2,2,10,0,2,8,8,8,8,8,7,3,1,2,0,0,0,0,0,2,2147.txt
1,1,1,1,8,0,7,1,4,0,1,7,10,3,5,3,2,3,2,2,2,3,2,2,3,3,8,7,7,7,7,7,8,7,8,7,8,7,7,7,7,7,6,7,6,6,6,1,1,4,2,2,2,2,2,2,1,2149.txt
4,1,1,1,26,0,1,0,4,0,0,0,4,1,2,2,0,0,0,0,0,0,0,0,0,4,0,3,8,2,2,2,3,20,3,2,10,2,2,9,0,2,8,8,8,8,8,0,9,1,1,0,0,0,0,0,1,2151.txt
1,3,1,1,8,0,5,1,6,0,1,7,5,5,5,4,2,3,2,2,2,2,2,2,3,0,5,4,4,4,4,4,5,4,5,4,5,3,3,4,4,4,4,4,4,4,4,4,12,4,4,2,1,1,1,2,1,2153.txt
1,3,1,1,8,0,8,1,10,0,1,7,4,4,5,4,2,3,2,2,2,4,2,2,3,20,11,10,6,12,11,12,12,22,10,10,17,6,9,6,7,7,7,7,1,1,1,1,1,0,0,1,1,2,2,2,0,2154.txt
5,1,1,1,8,0,1,1,4,0,1,7,5,3,5,4,2,3,2,4,2,2,2,2,3,1,4,3,8,8,2,2,3,18,3,9,9,2,2,8,8,2,8,8,8,8,8,7,13,6,1,0,0,1,1,0,2,2156.txt
1,3,1,1,0,0,1,1,0,0,0,0,1,1,2,2,0,0,0,0,0,0,0,0,0,20,0,10,6,6,6,6,7,22,15,10,2,6,9,7,2,0,2,7,6,6,6,5,2,4,2,2,2,2,2,2,0,2160.txt
1,3,1,1,10,0,1,12,4,0,1,7,5,5,5,3,2,3,2,2,2,2,2,2,3,20,8,7,7,7,7,7,8,7,8,7,8,7,7,7,7,7,6,7,6,6,5,6,3,4,2,2,2,2,2,2,1,2161.txt
