0,1,2,3,4,5,6,7,8,9,10,11,12,13,14,15,16,17,18,19,20,21,22,23,24,25,26,27,28,29,30,31,32,33,34,35,36,37,38,39,40,41,42,43,44,45,46,47,48,49,50,51,52,53,filename
23,0,3,2,0,4,0,0,0,0,14,0,13,28,26,25,0,22,0,25,0,6,29,10,29,14,27,22,24,28,0,0,0,0,0,0,13,6,0,0,7,0,6,6,0,12,0,0,0,0,0,29,0,0,2.txt
26,3,2,29,3,2,3,23,3,2,2,2,2,2,2,2,2,2,2,2,3,3,1,1,1,14,25,27,27,26,1,1,1,1,1,1,1,1,1,1,1,7,1,1,1,1,1,1,1,1,1,1,1,1,5.txt
23,0,3,2,0,4,0,0,0,0,14,0,13,28,26,25,0,22,0,25,0,6,1,1,1,3,3,4,3,3,0,0,0,0,0,1,3,3,3,3,7,15,6,6,0,12,4,5,5,4,4,3,30,0,9.txt
23,0,3,2,0,4,0,0,0,0,14,0,13,28,26,25,0,22,0,25,0,6,1,1,1,14,27,22,24,28,1,1,1,1,1,4,1,1,1,1,1,15,1,1,1,1,1,1,1,1,2,1,1,1,12.txt
23,0,3,2,0,4,0,0,0,0,14,0,13,28,26,25,0,22,0,25,0,6,1,1,1,14,27,22,24,28,0,0,0,0,0,1,12,6,0,0,0,15,0,7,0,12,0,0,0,0,8,27,4,0,14.txt
23,26,3,20,0,4,0,0,0,0,27,24,3,0,0,20,0,20,0,25,0,6,29,10,29,14,1,1,1,1,5,0,0,0,0,2,12,6,0,0,7,0,6,6,16,12,0,0,0,0,1,10,30,0,16.txt
23,0,3,2,0,4,0,0,0,0,14,0,13,28,26,25,0,22,0,25,0,6,26,7,7,14,27,22,24,28,1,1,1,1,1,29,1,1,1,1,7,15,6,6,16,6,3,10,11,3,1,8,30,8,17.txt
23,0,3,2,0,4,0,0,0,0,14,0,13,28,26,25,0,22,0,25,0,6,1,1,1,14,27,22,24,28,0,8,9,8,7,1,12,6,3,3,7,15,6,6,0,12,4,5,5,4,4,3,30,0,21.txt
23,0,3,2,0,4,0,0,0,0,14,0,13,28,26,25,0,22,0,25,0,6,1,1,1,14,27,22,24,28,1,1,1,1,1,1,1,1,1,1,1,15,1,1,1,1,1,1,1,1,1,1,1,1,23.txt
23,0,3,2,0,4,6,6,7,0,14,0,13,28,26,25,0,22,0,25,0,6,1,1,1,14,27,22,24,28,7,8,9,8,7,1,12,6,28,25,7,15,6,6,0,12,2,9,10,12,28,3,30,0,24.txt
23,0,3,2,0,4,0,0,0,0,14,0,13,28,26,25,0,22,0,25,0,6,29,10,29,0,0,0,0,0,0,0,0,0,0,0,12,6,0,0,4,3,4,4,4,9,0,0,0,0,9,2,2,0,26.txt
23,0,3,2,0,4,0,0,0,0,14,0,13,28,26,25,0,22,0,25,0,6,1,1,1,14,27,22,24,28,10,8,9,8,7,1,6,11,2,2,7,15,6,6,7,12,8,5,5,9,4,8,8,19,28.txt
23,0,3,2,0,4,0,0,0,0,14,0,13,28,26,25,0,22,0,0,0,6,29,10,29,0,0,0,0,0,0,0,0,0,0,0,12,6,0,0,7,15,6,6,0,12,0,0,0,0,0,3,6,0,30.txt
26,4,30,29,30,14,23,16,13,8,9,23,7,23,6,17,15,15,14,5,16,14,16,21,13,27,17,12,20,23,21,8,9,8,7,15,30,25,11,11,23,26,29,25,11,26,24,7,8,18,6,28,25,25,32.txt
23,0,3,2,0,4,6,6,7,0,14,0,13,28,26,25,0,22,0,25,0,6,2,2,2,16,2,16,12,12,5,0,0,0,0,27,12,6,28,17,7,15,6,6,16,6,12,10,11,11,26,3,30,8,34.txt
23,0,3,2,0,4,0,0,0,0,14,0,13,28,26,25,0,22,0,25,0,6,29,10,29,26,2,25,21,24,4,4,4,4,4,12,14,6,2,2,7,0,6,6,16,12,3,9,10,3,8,8,30,19,36.txt
23,0,3,2,0,4,0,0,0,0,14,0,13,28,26,25,0,22,0,25,0,6,1,1,1,14,27,22,24,28,1,1,1,1,1,1,1,1,1,1,1,15,1,1,1,1,1,1,1,1,1,1,1,1,40.txt
23,0,3,2,0,4,0,0,0,0,14,0,13,28,26,25,0,22,0,25,0,6,29,10,29,6,6,0,6,6,19,0,0,0,0,0,12,6,0,0,7,15,6,6,16,12,0,0,0,0,0,8,30,0,41.txt
23,0,3,2,0,4,0,0,0,0,14,0,13,28,26,25,0,22,0,25,0,6,1,1,1,14,27,22,24,28,1,1,1,1,1,1,1,1,1,1,1,3,1,1,1,1,1,1,1,1,1,1,1,1,49.txt
23,0,3,2,0,4,0,0,0,0,14,0,13,28,26,25,0,22,0,25,0,6,1,1,1,6,6,9,6,6,0,8,9,8,0,1,12,6,3,3,7,15,6,6,0,12,4,9,10,4,9,3,30,0,53.txt
23,0,3,2,0,4,0,0,0,0,14,0,13,28,26,25,0,22,0,25,0,6,29,10,29,14,27,22,24,28,3,0,0,0,0,0,12,4,0,0,7,15,6,6,16,12,0,0,0,0,8,3,3,0,55.txt
23,0,3,2,0,4,0,0,0,0,14,0,13,28,26,25,0,22,0,25,0,6,1,1,1,14,27,22,24,28,0,0,0,0,0,1,12,6,0,0,7,15,6,6,0,12,0,0,0,0,4,3,30,0,57.txt
23,0,3,2,0,4,0,0,0,0,14,0,13,28,26,25,0,22,0,25,0,6,1,1,1,14,27,22,24,28,1,1,1,1,1,1,1,1,1,1,1,15,1,1,1,1,1,1,1,1,1,1,1,1,60.txt
23,0,3,20,0,4,0,0,0,1,14,21,7,1,1,5,4,13,5,1,10,8,29,10,29,0,0,0,0,0,0,0,0,0,0,0,2,2,0,0,2,1,2,2,9,12,0,0,0,0,0,3,30,0,61.txt
23,0,3,2,0,4,0,0,0,0,14,0,13,28,26,25,0,22,0,25,0,6,1,1,1,14,27,22,24,28,1,1,1,1,1,1,1,1,1,1,1,15,1,1,1,1,1,1,1,1,1,1,1,1,63.txt
23,24,3,2,10,4,0,0,0,7,8,6,7,8,12,17,11,13,14,9,10,8,29,10,29,0,0,0,0,0,0,9,10,17,12,0,23,14,3,3,6,20,25,9,9,12,4,2,2,4,9,3,30,0,65.txt
15,3,1,1,3,2,29,23,28,2,2,2,2,2,2,10,11,13,14,9,10,8,1,1,1,14,25,27,27,26,29,8,9,8,7,1,23,8,26,9,6,5,8,8,9,12,4,5,5,4,4,3,30,0,68.txt
23,0,3,2,0,4,0,0,0,0,14,0,13,28,26,25,0,22,0,25,0,6,29,10,29,29,15,4,22,25,7,8,9,8,7,12,13,6,17,10,7,15,6,6,0,12,27,9,10,21,9,3,30,0,71.txt
23,0,3,2,0,4,0,0,0,0,14,0,13,28,26,25,0,22,0,25,0,6,1,1,1,14,8,15,17,16,1,1,1,1,1,3,1,1,1,1,1,15,1,1,1,1,1,1,1,1,25,1,1,1,72.txt
23,0,3,2,0,4,0,0,0,0,14,0,13,28,26,25,0,22,0,25,0,6,1,1,1,14,27,22,24,28,1,1,1,1,1,3,1,1,1,1,1,15,1,1,1,1,1,1,1,1,1,1,1,1,76.txt
23,26,3,20,0,4,0,0,0,0,27,24,3,0,0,20,0,20,0,25,0,6,9,12,27,6,6,9,6,6,0,0,0,0,12,16,12,23,11,11,7,15,6,6,0,13,4,6,7,4,0,12,15,15,78.txt
23,0,3,2,0,4,0,0,0,0,14,0,13,28,26,25,0,22,0,25,0,6,1,1,1,6,6,4,6,6,5,8,6,6,7,1,12,6,3,3,7,0,6,6,6,12,13,6,7,6,0,8,30,0,81.txt
23,0,3,2,0,4,0,0,0,0,14,0,13,28,26,25,0,22,0,25,0,6,29,10,29,0,0,0,0,0,0,0,0,0,0,0,12,6,0,0,7,15,6,6,0,12,0,0,0,0,9,3,6,0,84.txt
23,0,3,2,0,4,0,0,0,0,14,0,13,28,26,25,0,22,0,25,0,6,1,1,1,14,27,22,24,28,1,1,1,1,1,1,1,1,1,1,1,15,1,1,1,1,1,1,1,1,1,1,1,1,86.txt
23,0,3,2,0,4,0,0,0,0,14,0,13,28,26,25,0,22,0,25,0,6,1,1,1,14,27,22,24,28,0,8,9,8,7,1,12,6,3,3,7,15,6,6,0,12,4,6,7,4,0,3,30,0,89.txt
23,0,3,2,0,4,0,0,0,0,14,0,13,28,26,25,0,22,0,25,0,6,1,1,1,14,27,22,24,28,1,1,1,1,1,1,1,1,1,1,1,16,1,1,1,1,1,1,1,1,4,1,1,1,90.txt
23,0,3,2,0,4,0,0,0,0,14,0,13,28,26,25,0,22,0,25,0,6,1,1,1,14,27,22,24,28,1,1,1,1,1,1,1,1,1,1,1,15,1,1,1,1,1,1,1,1,1,1,1,1,92.txt
23,0,3,20,0,4,29,4,28,0,14,0,13,0,0,20,0,20,0,25,0,6,5,5,5,6,6,5,6,6,0,0,0,0,0,6,12,23,0,0,7,15,6,6,0,14,0,0,0,0,21,12,15,16,95.txt
23,0,3,2,0,4,0,0,0,0,14,0,13,28,26,25,0,22,0,25,0,6,1,1,1,26,2,9,20,23,21,8,9,8,7,1,12,6,2,2,7,15,6,6,6,18,8,7,8,9,9,8,30,22,97.txt
23,0,3,2,0,4,0,0,0,0,14,0,13,28,26,25,0,22,0,25,0,6,29,10,29,14,27,22,24,28,3,0,0,0,0,0,12,6,0,0,7,15,6,6,16,12,0,0,0,0,0,21,0,0,98.txt
23,0,3,2,0,4,0,0,0,0,14,0,13,28,26,25,0,22,0,25,0,6,1,1,1,14,27,22,24,28,1,1,1,1,1,1,1,1,1,1,1,15,1,1,1,1,1,1,1,1,4,1,1,1,100.txt
23,0,3,2,0,4,0,0,0,0,14,0,13,28,26,25,0,22,0,25,0,6,29,10,29,0,0,9,0,0,0,8,9,8,7,12,3,3,3,3,7,15,6,6,0,12,4,9,10,4,9,3,30,0,102.txt
23,0,3,2,0,4,0,0,0,0,14,0,13,28,26,25,0,22,0,25,0,6,1,1,1,14,27,22,24,28,0,0,0,0,0,1,12,6,0,0,7,15,6,6,0,12,0,0,0,0,9,3,30,0,105.txt
23,0,3,2,0,4,0,0,0,0,14,0,13,28,26,25,0,22,0,25,0,6,1,1,1,14,27,22,24,28,1,1,1,1,1,1,1,1,1,1,1,3,1,1,1,1,1,1,1,1,4,1,1,1,108.txt
23,0,3,2,0,4,0,0,0,0,14,0,13,28,26,25,0,22,0,25,0,6,1,1,1,14,27,22,24,28,1,1,1,1,1,3,1,1,1,1,1,15,1,1,1,1,1,1,1,1,1,1,1,1,110.txt
23,0,3,2,0,4,0,0,0,0,14,0,13,28,26,25,0,22,0,25,0,6,1,1,1,14,27,22,24,28,1,1,1,1,1,1,1,1,1,1,1,15,1,1,1,1,1,1,1,1,4,1,1,1,112.txt
23,0,3,2,0,4,0,0,0,0,14,0,13,28,26,25,0,22,0,25,0,6,1,1,1,6,6,4,6,6,0,8,9,8,7,1,12,6,3,3,7,15,6,6,0,12,4,2,2,4,0,3,30,0,114.txt
23,0,3,2,0,4,0,0,0,0,14,0,13,28,26,25,0,22,0,25,0,6,29,10,29,0,0,9,0,0,0,17,15,29,15,12,12,6,9,6,7,15,6,6,0,12,4,6,7,4,0,3,30,0,116.txt
23,0,3,2,0,4,0,0,0,0,14,0,13,28,26,25,0,22,0,25,0,6,1,1,1,14,27,22,24,28,1,1,1,1,1,1,1,1,1,1,1,15,1,1,1,1,1,1,1,1,4,1,1,1,118.txt
15,3,1,1,3,2,13,4,14,2,7,2,7,1,9,10,15,13,14,19,16,14,1,1,1,14,1,1,1,1,0,14,17,12,7,4,25,18,26,9,12,22,25,20,29,13,4,12,13,4,22,3,30,15,121.txt
23,0,3,2,0,4,0,0,0,0,14,0,13,28,26,25,0,22,0,25,0,6,29,10,29,3,3,4,3,3,10,9,10,5,12,12,6,11,3,3,7,15,6,6,0,12,30,5,5,24,4,3,30,4,123.txt
23,0,3,2,0,4,0,0,0,0,14,0,13,28,26,25,0,22,0,25,0,6,1,1,1,21,2,12,20,23,5,8,9,8,7,1,13,6,3,3,7,0,6,6,16,12,13,9,10,6,11,7,30,0,124.txt
23,0,3,2,0,4,0,0,0,0,14,0,13,28,26,25,0,22,0,25,0,6,1,1,1,14,27,22,24,28,1,1,1,1,1,1,1,1,1,1,1,15,1,1,1,1,1,1,1,1,4,1,1,1,126.txt
23,0,3,2,0,4,0,0,0,0,14,0,13,28,26,25,0,22,0,25,0,6,1,1,1,14,27,22,24,28,1,1,1,1,1,1,1,1,1,1,7,0,6,6,6,5,4,5,5,7,4,8,30,7,128.txt
23,0,3,2,0,4,0,0,0,0,14,0,13,28,26,25,0,22,0,25,0,6,1,1,1,14,27,22,24,28,1,1,1,1,1,1,1,1,1,1,1,15,1,1,1,1,1,1,1,1,1,1,1,1,130.txt
23,0,3,2,0,4,0,0,0,0,14,0,13,28,26,25,0,22,0,25,0,6,1,1,1,14,27,22,24,28,1,1,1,1,1,1,1,1,1,1,1,15,1,1,1,1,1,1,1,1,4,1,1,1,132.txt
23,0,3,2,0,4,0,0,0,0,14,0,13,28,26,25,0,22,0,25,0,6,1,1,1,14,27,22,24,28,1,1,1,1,1,1,1,1,1,1,1,15,1,1,1,1,1,1,1,1,1,1,1,1,135.txt
23,0,3,20,0,4,0,0,0,0,14,0,13,0,0,20,0,20,0,25,0,6,22,24,3,14,27,22,24,28,1,1,1,1,1,2,1,1,1,1,25,15,14,15,16,9,3,3,3,3,1,29,9,12,137.txt
23,0,3,2,0,4,0,0,0,0,14,0,13,28,26,25,0,22,0,25,0,6,1,1,1,14,27,22,24,28,1,1,1,1,1,1,1,1,1,1,1,15,1,1,1,1,1,1,1,1,1,1,1,1,141.txt
23,0,3,2,0,4,0,0,0,0,14,0,13,28,26,25,0,22,0,25,0,6,1,1,1,14,27,22,24,28,1,1,1,1,1,1,1,1,1,1,7,15,6,6,0,12,0,0,0,0,4,3,30,0,144.txt
23,0,3,2,0,4,0,0,0,0,14,0,13,28,26,25,0,22,0,25,0,6,1,1,1,14,27,22,24,28,18,8,9,8,7,1,3,3,3,3,7,15,6,6,16,12,11,9,10,12,8,8,30,0,145.txt
23,0,3,2,0,4,0,0,0,0,14,0,13,28,26,25,0,22,0,25,0,6,1,1,1,14,27,22,24,28,1,1,1,1,1,1,1,1,1,1,1,15,1,1,1,1,1,1,1,1,1,1,1,1,147.txt
23,0,3,2,0,4,0,0,0,0,14,0,13,28,26,25,0,22,0,25,0,6,1,1,1,14,27,22,24,28,0,0,0,0,0,1,12,6,3,3,7,15,6,6,0,12,4,5,5,4,4,3,30,0,149.txt
23,0,3,2,0,4,0,0,0,0,14,0,13,28,26,25,0,22,0,25,0,6,1,1,1,14,27,22,24,28,1,1,1,1,1,1,1,1,1,1,1,15,1,1,1,1,1,1,1,1,4,1,1,1,151.txt
23,0,3,2,0,4,0,0,0,0,14,0,13,28,26,25,0,22,0,25,0,6,1,1,1,14,27,22,24,28,1,1,1,1,1,1,1,1,1,1,1,15,1,1,1,1,1,1,1,1,1,1,1,1,154.txt
23,0,3,2,0,4,0,0,0,0,14,0,13,28,26,25,0,22,0,25,0,6,1,1,1,14,27,22,24,28,6,8,9,8,6,1,4,9,3,3,4,3,4,4,4,9,4,15,21,4,9,2,2,13,156.txt
23,0,3,2,0,4,0,0,0,0,14,0,13,28,26,25,0,22,0,25,0,6,29,10,29,0,0,0,0,0,10,8,9,8,0,0,12,6,0,0,7,15,6,6,0,12,0,0,0,0,9,3,30,0,158.txt
23,0,3,2,0,4,0,0,0,0,14,0,13,28,26,25,0,22,0,25,0,6,29,10,29,14,27,22,24,28,3,4,4,4,4,12,12,6,2,2,7,0,6,6,16,12,3,9,10,3,8,8,30,0,160.txt
23,0,3,2,0,4,0,0,0,0,14,0,13,28,26,25,0,22,0,25,0,6,1,1,1,14,27,22,24,28,5,0,0,0,0,1,12,6,3,3,7,16,6,6,6,12,4,5,5,7,4,8,30,0,161.txt
23,0,3,20,0,4,0,0,0,0,14,0,13,0,0,20,0,20,0,25,0,6,29,10,29,0,0,0,0,0,0,0,0,0,0,0,12,6,0,0,7,15,6,6,0,12,0,0,0,0,0,3,30,0,163.txt
23,0,3,2,0,4,0,0,0,0,14,0,13,28,26,25,0,22,0,25,0,6,1,1,1,14,27,22,24,28,1,1,1,1,1,1,1,1,1,1,1,15,1,1,1,1,1,1,1,1,4,1,1,1,165.txt
23,0,3,2,0,4,0,0,0,2,14,2,2,2,20,5,4,10,5,1,20,29,1,1,1,3,3,0,3,3,0,0,0,0,0,1,16,25,0,0,2,5,2,2,19,13,0,0,0,0,4,12,9,15,167.txt
23,0,3,2,0,4,0,0,0,0,14,0,13,28,26,25,0,22,0,25,0,6,1,1,1,14,27,22,24,28,1,1,1,1,1,1,1,1,1,1,1,15,1,1,1,1,1,1,1,1,4,1,1,1,169.txt
23,0,3,2,0,4,0,0,0,0,14,0,13,28,26,25,0,22,0,25,0,6,1,1,1,14,27,22,24,28,1,1,1,1,1,1,1,1,1,1,1,15,1,1,1,1,1,1,1,1,1,1,1,1,171.txt
23,0,3,2,0,4,0,0,0,0,14,0,13,28,26,25,0,22,0,25,0,6,1,1,1,0,0,0,0,0,0,0,0,0,7,1,12,7,0,0,7,15,6,6,0,12,0,0,0,0,4,3,30,0,173.txt
23,0,3,2,0,10,0,0,0,0,14,0,13,28,26,25,0,22,0,25,0,6,1,1,1,14,27,22,24,28,1,1,1,1,1,1,1,1,1,1,1,15,1,1,1,1,1,1,1,1,1,1,1,1,175.txt
23,0,3,2,0,4,0,0,0,0,14,0,13,28,26,25,0,22,0,25,0,6,1,1,1,14,27,22,24,28,1,1,1,1,1,1,1,1,1,1,1,15,1,1,1,1,1,1,1,1,4,1,1,1,177.txt
23,0,3,2,0,4,0,0,0,0,14,0,13,28,26,25,0,22,0,25,0,6,1,1,1,14,27,22,24,28,1,1,1,1,1,1,1,1,1,1,1,15,1,1,1,1,1,1,1,1,1,1,1,1,179.txt
23,0,3,2,0,4,0,0,0,0,14,0,13,28,26,25,0,22,0,25,0,6,1,1,1,14,27,22,24,28,1,1,1,1,1,3,1,1,1,1,1,15,1,1,1,1,1,1,1,1,1,1,1,1,182.txt
23,0,3,2,0,4,0,0,0,0,14,0,13,28,26,25,0,22,0,25,0,6,1,1,1,14,27,22,24,28,1,1,1,1,1,1,1,1,1,1,1,15,1,1,1,1,1,1,1,1,1,1,1,1,184.txt
23,0,3,2,0,4,0,0,0,0,14,0,13,28,26,25,0,22,0,25,0,6,1,1,1,14,27,22,24,28,1,1,1,1,1,1,1,1,1,1,7,15,6,6,0,12,5,5,5,5,4,2,2,0,188.txt
23,0,3,2,0,4,0,0,0,0,14,0,13,28,26,25,0,22,0,25,0,6,29,10,29,13,11,12,11,11,17,22,15,18,15,12,13,6,19,22,7,16,6,6,16,12,8,12,13,9,8,3,30,0,189.txt
23,0,3,2,0,4,0,0,0,0,14,0,13,28,26,25,0,22,0,25,0,6,1,1,1,14,27,22,24,28,0,0,0,0,0,1,12,23,3,3,7,15,6,6,0,13,4,5,5,4,4,14,0,15,191.txt
26,28,2,25,10,7,29,23,28,26,22,30,9,18,21,17,11,25,14,9,21,21,29,10,29,6,6,12,6,6,29,23,25,28,28,12,22,25,18,25,16,27,25,28,27,12,4,12,13,4,8,3,3,19,194.txt
23,0,3,2,0,4,0,0,0,0,14,0,13,28,26,25,0,22,0,25,0,6,1,1,1,14,27,22,24,28,1,1,1,1,1,3,1,1,1,1,1,15,1,1,1,1,1,1,1,1,1,1,1,1,197.txt
23,0,3,2,0,4,0,0,0,0,14,0,13,28,26,25,0,22,0,25,0,6,1,1,1,14,27,22,24,28,1,1,1,1,1,1,1,1,1,1,1,15,1,1,1,1,1,1,1,1,1,1,1,1,199.txt
23,26,3,2,0,4,0,0,0,0,27,24,3,28,26,25,0,22,0,25,0,6,9,21,27,5,15,24,29,25,17,2,2,2,11,19,0,6,28,18,7,0,6,6,16,5,12,10,11,12,8,3,8,7,203.txt
23,0,3,2,0,4,0,0,0,0,14,0,13,28,26,25,0,22,0,25,0,6,1,1,1,14,27,22,24,28,1,1,1,1,1,9,1,1,1,1,1,15,1,1,1,1,1,1,1,1,1,1,1,1,204.txt
23,0,3,20,0,4,0,0,0,0,14,0,13,0,0,20,0,20,0,25,0,6,2,2,2,0,0,0,0,0,0,0,0,0,0,0,12,6,0,0,7,15,6,6,0,13,0,0,0,0,0,3,30,15,209.txt
23,0,3,2,0,4,0,0,0,0,14,0,13,28,26,25,0,22,0,25,0,6,1,1,1,14,27,22,24,28,0,0,0,0,0,1,12,6,0,0,7,16,6,6,0,12,0,0,0,0,4,3,30,0,210.txt
23,0,3,2,0,4,0,0,0,0,14,0,13,28,26,25,0,22,0,25,0,6,1,1,1,14,27,22,24,28,1,1,1,1,1,1,1,1,1,1,1,15,1,1,1,1,1,1,1,1,1,1,1,1,212.txt
23,0,3,2,0,4,0,0,0,0,14,0,13,28,26,25,0,22,0,25,0,6,29,10,29,0,0,11,0,0,0,8,9,8,7,12,12,6,3,3,7,15,6,6,0,12,4,6,7,4,0,3,30,0,214.txt
15,3,1,1,3,2,3,13,26,21,2,4,4,9,2,2,11,30,14,24,15,24,27,7,7,9,25,27,27,26,29,26,22,22,23,21,16,25,2,2,30,29,29,20,20,18,22,14,15,14,8,7,30,22,217.txt
23,0,3,20,0,10,0,0,0,0,14,0,13,10,8,20,0,20,0,25,0,6,29,10,29,14,27,22,24,28,4,15,3,15,4,2,3,3,2,2,7,15,6,6,0,12,3,3,3,3,1,3,3,0,219.txt
23,0,3,2,0,4,0,0,0,0,14,0,13,28,26,25,0,22,0,25,0,6,22,24,23,14,27,22,24,28,1,1,1,1,1,2,1,1,1,1,1,15,1,1,1,1,1,1,1,1,1,1,1,1,220.txt
23,0,3,2,0,4,0,0,0,0,14,0,13,28,26,25,0,22,0,25,0,6,1,1,1,14,27,22,24,28,1,1,1,1,1,1,1,1,1,1,1,15,1,1,1,1,1,1,1,1,1,1,1,1,222.txt
23,0,3,2,0,4,0,0,0,0,14,0,13,28,26,25,0,22,0,25,0,6,29,10,29,14,27,22,24,28,1,1,1,1,1,2,1,1,1,1,1,15,1,1,1,1,1,1,1,1,1,1,1,1,225.txt
23,0,3,2,0,4,0,0,0,0,14,0,13,28,26,25,0,22,0,25,0,6,1,1,1,14,27,22,24,28,0,8,9,8,0,1,12,6,26,9,7,15,6,6,0,12,4,5,5,4,4,3,30,0,227.txt
23,0,3,2,0,4,0,0,0,0,14,0,13,28,26,25,0,22,0,25,0,6,1,1,1,14,27,22,24,28,1,1,1,1,1,1,1,1,1,1,1,15,1,1,1,1,1,1,1,1,1,1,1,1,229.txt
23,0,3,2,0,4,0,0,0,0,14,0,13,28,26,25,0,22,0,25,0,6,1,1,1,14,27,22,24,28,1,1,1,1,1,3,1,1,1,1,1,0,1,1,1,1,1,1,1,1,1,1,1,1,231.txt
23,0,3,2,0,4,0,0,0,2,14,2,8,11,1,5,4,13,5,1,10,8,1,1,1,0,0,0,0,0,0,0,0,0,0,1,23,14,0,0,2,1,2,2,9,12,0,0,0,0,4,3,6,0,236.txt
23,0,3,2,0,4,0,0,0,0,14,0,13,28,26,25,0,22,0,25,0,6,29,10,29,6,6,12,6,6,0,8,9,8,7,12,12,6,26,9,7,15,6,6,0,12,5,6,7,5,0,3,30,0,241.txt
23,0,3,2,0,4,0,0,0,0,14,0,13,28,26,25,0,22,0,25,0,6,29,10,29,14,27,22,24,28,1,1,1,1,1,2,1,1,1,1,1,15,1,1,1,1,1,1,1,1,1,1,1,1,242.txt
23,0,3,2,0,4,0,0,0,0,14,0,13,28,26,25,0,22,0,25,0,6,1,1,1,14,27,22,24,28,1,1,1,1,1,1,1,1,1,1,7,15,6,6,0,13,5,5,5,5,4,3,30,15,245.txt
23,0,3,2,0,4,0,0,0,0,14,0,13,28,26,25,0,22,0,25,0,6,1,1,1,14,21,22,24,21,0,0,0,0,0,1,12,6,0,0,7,15,6,6,0,12,0,0,0,0,4,3,6,0,247.txt
23,0,3,2,0,4,0,0,0,0,14,0,13,28,26,25,0,22,0,25,0,6,2,2,2,14,27,22,24,28,5,15,3,15,0,13,12,4,11,11,7,0,6,6,16,5,3,6,7,3,0,8,30,7,249.txt
23,0,3,2,0,10,0,0,0,0,14,0,13,28,26,25,0,22,0,25,0,6,1,1,1,14,27,22,24,28,1,1,1,1,1,1,1,1,1,1,1,15,1,1,1,1,1,1,1,1,4,1,1,1,250.txt
23,0,3,2,0,4,0,0,0,0,14,0,13,28,26,25,0,22,0,25,0,6,1,1,1,14,27,22,24,28,1,1,1,1,1,1,1,1,1,1,1,15,1,1,1,1,1,1,1,1,4,1,1,1,252.txt
23,3,1,1,3,2,1,23,1,2,2,2,2,2,2,5,4,13,5,1,10,8,1,1,1,14,27,22,24,28,0,0,0,0,0,1,2,2,0,0,2,1,2,2,2,12,0,0,0,0,0,3,30,0,256.txt
23,0,3,2,0,4,0,0,0,0,14,0,13,28,26,25,0,22,0,25,0,6,1,1,1,14,27,22,24,28,1,1,1,1,1,1,1,1,1,1,7,15,6,6,0,12,0,0,0,0,8,3,30,0,258.txt
23,0,3,2,0,4,0,0,0,0,14,0,13,28,26,25,0,22,0,0,0,6,1,1,1,14,27,22,24,28,1,1,1,1,1,1,1,1,1,1,1,15,1,1,1,1,1,1,1,1,4,1,1,1,260.txt
23,0,3,2,0,4,0,0,0,0,14,0,13,28,26,25,0,22,0,25,0,6,1,1,1,14,27,22,24,28,5,0,0,0,0,1,13,6,0,0,7,16,6,6,6,12,0,0,0,0,4,7,6,0,261.txt
23,0,3,2,0,4,0,0,0,0,14,0,13,28,26,25,0,22,0,25,0,6,1,1,1,14,27,22,24,28,1,1,1,1,1,1,1,1,1,1,1,15,1,1,1,1,1,1,1,1,1,1,1,1,264.txt
23,0,3,2,0,4,0,0,0,0,14,0,13,28,26,25,0,22,0,25,0,6,1,1,1,14,27,22,24,28,1,1,1,1,1,3,1,1,1,1,1,2,1,1,1,1,1,1,1,1,1,1,1,1,269.txt
23,0,3,2,0,4,0,0,0,0,14,0,13,28,26,25,0,22,0,25,0,6,1,1,1,14,27,22,24,28,1,1,1,1,1,1,1,1,1,1,1,15,1,1,1,1,1,1,1,1,4,1,1,1,272.txt
23,0,3,2,0,4,0,0,0,0,14,0,13,28,26,25,0,22,0,25,0,6,1,1,1,14,27,22,24,28,1,1,1,1,1,1,1,1,1,1,1,15,1,1,1,1,1,1,1,1,1,1,1,1,274.txt
23,26,3,20,0,4,0,0,0,0,27,24,3,0,0,20,0,20,0,25,0,6,5,5,5,0,0,0,0,0,19,0,0,0,0,0,13,6,0,0,7,15,6,6,16,7,0,0,0,0,0,21,0,9,276.txt
23,0,3,2,0,4,0,0,0,0,14,0,13,28,26,25,0,22,0,25,0,6,1,1,1,14,21,22,24,21,1,1,1,1,1,1,1,1,1,1,1,15,1,1,1,1,1,1,1,1,1,1,1,1,280.txt
23,0,3,2,0,4,0,0,0,0,14,0,13,28,26,25,0,22,0,25,0,6,1,1,1,14,27,22,24,28,1,1,1,1,1,3,1,1,1,1,1,0,1,1,1,1,1,1,1,1,1,1,1,1,282.txt
23,0,3,2,0,4,0,0,0,0,14,0,13,28,26,25,0,22,0,25,0,6,7,26,6,18,11,12,14,14,0,8,9,8,7,19,12,6,3,3,7,0,6,6,0,13,11,22,23,12,8,3,30,15,283.txt
23,0,3,2,0,4,0,0,0,0,14,0,13,28,26,25,0,22,0,25,0,6,1,1,1,14,27,22,24,28,1,1,1,1,1,1,1,1,1,1,1,15,1,1,1,1,1,1,1,1,4,1,1,1,284.txt
23,0,3,2,0,4,0,0,0,0,14,0,13,28,26,25,0,22,0,25,0,6,1,1,1,0,0,0,0,0,0,0,0,0,0,1,12,6,0,0,7,15,6,6,0,12,0,0,0,0,4,3,30,0,286.txt
23,0,3,2,0,4,0,0,0,0,14,0,13,28,26,25,0,22,0,25,0,6,29,10,29,0,0,0,0,0,19,0,0,0,15,0,12,6,19,17,7,15,6,6,16,12,14,9,10,11,8,3,30,0,288.txt
23,0,3,2,0,4,0,0,0,0,14,0,13,28,26,25,0,22,0,25,0,6,29,10,29,0,0,0,0,0,0,0,0,0,0,0,12,6,0,0,7,15,6,6,0,12,0,0,0,0,0,3,30,0,290.txt
23,0,3,2,0,4,0,0,0,0,14,0,13,28,26,25,0,22,0,25,0,6,1,1,1,14,27,22,24,28,1,1,1,1,1,3,1,1,1,1,1,0,1,1,1,1,1,1,1,1,8,1,1,1,293.txt
23,0,3,20,0,4,0,0,0,0,14,0,13,0,0,20,0,20,0,25,0,6,5,5,5,0,0,0,0,0,0,0,0,0,0,0,13,6,0,0,7,15,6,6,0,13,0,0,0,0,0,3,30,15,295.txt
15,28,26,29,20,14,23,16,18,12,9,30,9,9,22,17,16,18,14,30,15,14,13,23,24,6,6,12,6,6,21,8,9,8,7,21,23,20,19,21,16,27,15,28,30,26,2,12,13,12,28,28,13,23,297.txt
23,0,3,2,0,4,0,0,0,0,14,0,13,28,26,25,0,22,0,25,0,6,29,10,29,0,0,0,0,0,0,0,0,0,0,0,12,6,0,0,7,15,6,6,0,12,0,0,0,0,0,3,30,0,300.txt
23,0,3,2,0,4,0,0,0,0,14,0,13,28,26,25,0,22,0,25,0,6,1,1,1,14,27,22,24,28,1,1,1,1,1,1,1,1,1,1,1,15,1,1,1,1,1,1,1,1,4,1,1,1,303.txt
23,0,3,2,0,4,0,0,0,0,14,0,13,28,26,25,0,22,0,0,0,6,29,10,29,0,0,0,0,0,0,0,0,0,0,0,12,6,0,0,7,15,6,6,0,12,0,0,0,0,0,3,30,0,305.txt
23,0,3,2,0,4,0,0,0,0,14,0,13,28,26,25,0,22,0,25,0,6,1,1,1,14,27,22,24,28,0,0,0,0,0,1,12,6,0,0,7,15,6,6,0,12,0,0,0,0,0,12,0,0,307.txt
23,0,3,2,0,4,0,0,0,0,14,0,13,28,26,25,0,22,0,25,0,6,1,1,1,6,6,4,6,6,0,8,9,8,7,1,12,6,2,2,7,15,6,6,0,12,4,5,5,4,4,3,30,0,311.txt
23,0,3,2,0,4,0,0,0,0,14,0,13,28,26,25,0,22,0,25,0,6,1,1,1,14,27,22,24,28,5,0,0,0,7,1,12,6,3,3,7,15,6,6,7,12,4,5,5,8,4,3,30,0,313.txt
23,0,3,2,0,4,0,0,0,0,14,0,13,28,26,25,0,22,0,25,0,6,1,1,1,14,27,22,24,28,1,1,1,1,1,3,1,1,1,1,1,15,1,1,1,1,1,1,1,1,1,1,1,1,318.txt
23,0,3,2,0,4,0,0,0,0,14,0,13,28,26,25,0,22,0,25,0,6,29,10,29,14,27,22,24,28,1,1,1,1,1,2,1,1,1,1,1,15,1,1,1,1,1,1,1,1,1,1,1,1,320.txt
28,4,17,10,12,14,23,19,18,29,1,1,1,9,6,1,1,1,1,5,22,17,16,21,17,7,29,28,16,18,30,24,21,22,0,15,16,25,13,13,2,1,2,2,19,4,20,14,15,28,14,28,9,18,322.txt
28,4,17,10,12,14,23,19,18,29,1,1,1,9,6,1,1,1,1,5,22,17,16,21,17,7,29,28,16,18,30,24,21,22,0,15,16,25,13,13,2,1,2,2,19,4,20,14,15,28,14,28,9,18,323.txt
23,0,3,2,0,4,0,0,0,0,14,0,13,28,26,25,0,22,0,25,0,6,1,1,1,14,27,22,24,28,1,1,1,1,1,1,1,1,1,1,1,15,1,1,1,1,1,1,1,1,1,1,1,1,324.txt
23,0,3,20,0,4,0,0,0,0,14,0,13,0,0,20,0,20,0,25,0,6,2,2,2,12,11,12,10,10,5,15,12,15,28,19,12,6,11,11,7,15,6,6,16,5,4,6,7,7,0,12,23,7,326.txt
23,0,3,2,0,4,0,0,0,0,14,0,13,28,26,25,0,22,0,25,0,6,2,2,2,0,0,0,0,0,0,0,0,0,0,0,12,6,6,10,7,15,6,6,0,13,4,6,7,4,0,12,0,15,328.txt
23,0,3,2,0,10,0,0,0,0,14,0,13,28,26,25,0,22,0,25,0,6,1,1,1,14,27,22,24,28,1,1,1,1,1,1,1,1,1,1,1,15,1,1,1,1,1,1,1,1,1,1,1,1,329.txt
23,0,3,2,0,4,0,0,0,0,14,0,13,28,26,25,0,22,0,25,0,6,1,1,1,14,27,22,24,28,1,1,1,1,1,3,1,1,1,1,1,15,1,1,1,1,1,1,1,1,1,1,1,1,333.txt
23,0,3,2,0,4,0,0,0,0,14,0,13,28,26,25,0,22,0,25,0,6,1,1,1,14,27,22,24,28,1,1,1,1,1,1,1,1,1,1,1,15,1,1,1,1,1,1,1,1,1,1,1,1,335.txt
23,0,3,2,0,4,0,0,0,0,14,0,13,28,26,25,0,22,0,25,0,6,1,1,1,14,27,22,24,28,1,1,1,1,1,3,1,1,1,1,1,15,1,1,1,1,1,1,1,1,2,1,1,1,337.txt
23,0,3,2,0,10,0,0,0,0,14,0,13,28,26,25,0,22,0,25,0,6,7,26,6,14,27,22,24,28,5,15,3,15,2,0,12,6,11,11,7,16,6,6,16,5,11,6,7,11,0,16,0,7,341.txt
23,0,3,2,0,4,0,0,0,0,14,0,13,28,26,25,0,22,0,25,0,6,16,13,24,0,0,9,0,0,0,8,9,8,0,19,12,23,3,3,7,15,6,6,0,14,4,6,7,4,0,12,15,16,342.txt
23,0,3,2,0,4,0,0,0,0,14,0,13,28,26,25,0,22,0,25,0,6,1,1,1,14,27,22,24,28,10,8,9,8,7,1,12,6,26,9,7,15,6,6,0,12,5,9,10,5,9,3,30,0,344.txt
23,0,3,2,0,4,0,0,0,0,14,0,13,28,26,25,0,22,0,25,0,6,1,1,1,14,27,22,24,28,0,0,0,0,0,1,12,4,0,0,7,15,6,6,0,12,0,0,0,0,8,3,8,0,347.txt
23,0,3,20,0,4,0,0,0,0,14,0,13,0,0,20,0,20,0,25,0,6,5,5,5,0,0,0,0,0,0,0,0,0,0,0,12,6,0,0,7,15,6,6,0,13,0,25,0,0,0,3,30,15,349.txt
23,0,3,2,0,4,0,0,0,0,14,0,13,28,26,25,0,22,0,25,0,6,29,10,29,0,0,11,0,0,0,0,0,0,0,12,13,6,11,11,7,15,6,6,0,12,4,6,7,4,0,3,30,0,352.txt
23,0,3,20,0,4,6,6,7,0,14,0,13,0,0,20,0,20,0,25,0,6,22,24,23,0,0,19,0,0,0,9,10,18,0,8,13,6,3,3,25,15,14,15,0,9,4,15,18,4,8,27,4,13,354.txt
23,0,3,2,0,4,0,0,0,0,14,0,13,28,26,25,0,22,0,25,0,6,1,1,1,14,27,22,24,28,1,1,1,1,1,1,1,1,1,1,7,0,6,6,16,12,3,3,3,3,1,8,30,0,358.txt
23,0,3,2,0,4,0,0,0,0,14,0,13,28,26,25,0,22,0,25,0,6,1,1,1,14,27,22,24,28,1,1,1,1,1,3,1,1,1,1,1,15,1,1,1,1,1,1,1,1,1,1,1,1,360.txt
23,0,3,20,0,4,6,6,7,0,14,0,13,0,0,20,0,20,0,25,0,6,9,21,27,6,6,0,6,6,0,22,29,30,15,0,12,6,3,3,7,15,6,6,0,13,4,6,7,4,0,12,12,15,362.txt
23,0,3,2,0,4,0,0,0,0,14,0,13,28,26,25,0,22,0,25,0,27,29,10,29,0,0,0,0,0,0,0,0,0,0,0,12,6,0,0,7,0,6,6,0,12,0,0,0,0,9,3,30,0,364.txt
23,0,3,2,0,4,0,0,0,0,14,0,13,28,26,25,0,22,0,25,0,6,1,1,1,14,27,22,24,28,1,1,1,1,1,1,1,1,1,1,1,15,1,1,1,1,1,1,1,1,0,1,1,1,365.txt
23,0,3,2,0,4,0,0,0,0,14,0,13,28,26,25,0,22,0,25,0,6,19,17,19,14,27,22,24,28,1,1,1,1,1,2,1,1,1,1,1,15,1,1,1,1,1,1,1,1,1,1,1,1,368.txt
23,0,3,2,0,4,0,0,0,0,14,0,13,28,26,25,0,22,0,25,0,6,29,10,29,6,6,2,6,6,3,28,23,21,21,12,6,11,19,25,7,15,6,6,16,12,10,9,10,18,8,8,30,19,369.txt
23,0,3,2,0,4,0,0,0,0,14,0,13,28,26,25,0,22,0,25,0,6,1,1,1,14,27,22,24,28,1,1,1,1,1,1,1,1,1,1,1,15,1,1,1,1,1,1,1,1,1,1,1,1,371.txt
26,28,26,25,20,14,21,19,13,8,11,30,10,23,16,5,4,27,5,5,16,24,12,20,17,27,17,19,20,23,21,7,8,9,8,15,23,18,28,20,16,26,27,10,25,24,21,2,2,14,14,28,29,25,375.txt
23,0,3,20,0,4,0,0,0,0,14,0,13,0,0,20,0,20,0,25,0,6,29,10,29,0,0,0,0,0,0,0,0,0,12,0,12,6,0,0,7,15,6,6,0,12,0,0,0,0,0,3,30,0,377.txt
23,0,3,2,0,4,0,0,0,0,14,0,13,28,26,25,0,22,0,25,0,6,1,1,1,14,27,22,24,28,1,1,1,1,1,1,1,1,1,1,1,15,1,1,1,1,1,1,1,1,1,1,1,1,380.txt
15,28,1,1,10,7,29,25,28,12,26,30,9,18,20,17,16,7,14,9,21,22,17,20,14,6,6,21,6,6,21,9,10,30,12,15,25,14,3,3,6,21,16,9,9,18,27,12,13,21,14,28,14,28,382.txt
23,0,3,2,0,4,0,0,0,0,14,0,13,28,26,25,0,22,0,25,0,6,1,1,1,14,27,22,24,28,1,1,1,1,1,1,1,1,1,1,1,15,1,1,1,1,1,1,1,1,1,1,1,1,385.txt
26,28,26,25,10,7,29,16,28,7,1,1,1,1,16,1,1,1,1,9,22,17,12,23,14,6,6,9,6,6,21,5,5,11,5,15,19,14,12,22,6,21,16,28,29,26,6,12,13,6,8,3,30,18,386.txt
23,0,3,20,0,4,0,0,0,0,14,0,13,0,0,20,0,20,0,25,0,6,29,10,29,6,6,25,6,6,9,28,22,22,21,12,12,6,19,25,7,0,6,6,16,12,24,9,10,18,8,8,30,0,387.txt
23,0,3,2,0,4,0,0,0,0,14,0,13,28,26,25,0,22,0,25,0,6,29,10,29,6,6,4,6,6,0,9,10,18,0,12,12,6,3,3,7,15,6,6,0,12,4,7,8,4,26,12,9,0,391.txt
23,0,3,2,0,4,0,0,0,0,14,0,13,28,26,25,0,22,0,25,0,6,29,10,29,0,0,0,0,0,0,0,0,0,0,0,12,6,0,0,7,0,6,6,0,12,0,0,0,0,0,3,30,0,394.txt
23,0,3,2,0,4,0,0,0,0,14,0,13,28,26,25,0,22,0,25,0,6,1,1,1,14,27,22,24,28,0,0,0,0,0,1,13,6,0,0,7,15,6,6,0,13,0,0,0,0,0,3,30,15,395.txt
23,0,3,2,0,4,0,0,0,0,14,0,13,28,26,25,0,22,0,25,0,6,1,1,1,14,27,22,24,28,1,1,1,1,1,1,1,1,1,1,1,0,1,1,1,1,1,1,1,1,4,1,1,1,397.txt
23,3,3,2,3,4,0,0,0,2,2,2,2,2,2,2,2,2,2,2,3,3,1,1,1,14,27,22,24,28,1,1,1,1,1,1,1,1,1,1,1,5,1,1,1,1,1,1,1,1,4,1,1,1,400.txt
23,0,0,2,23,4,0,0,0,15,14,0,23,28,26,25,14,22,20,18,23,2,1,1,1,14,27,22,24,28,1,1,1,1,1,1,1,1,1,1,1,15,1,1,1,1,1,1,1,1,4,1,1,1,402.txt
23,0,3,2,0,4,0,0,0,0,14,0,13,28,26,25,0,22,0,25,0,6,1,1,1,0,0,0,0,0,0,0,0,0,0,1,12,6,0,0,7,15,6,6,0,12,0,0,0,0,4,3,30,0,405.txt
23,0,3,2,0,10,0,0,0,0,14,0,13,28,26,25,0,22,0,25,0,6,1,1,1,14,27,22,24,28,1,1,1,1,1,1,1,1,1,1,7,15,6,6,7,12,4,5,5,7,4,8,30,0,407.txt
15,4,1,1,3,1,1,23,1,1,8,9,7,1,1,5,4,13,5,1,10,8,29,10,29,0,0,0,0,0,0,0,0,0,15,0,2,2,0,0,6,20,15,10,2,12,0,0,0,0,0,3,30,0,411.txt
23,26,3,20,0,4,6,6,7,0,27,24,3,0,0,20,0,20,0,25,0,6,9,23,27,0,0,19,0,0,19,0,0,0,0,16,12,6,13,13,7,15,6,6,16,5,14,12,13,18,8,12,15,7,413.txt
23,0,3,2,0,4,0,0,0,0,14,0,13,28,26,25,0,22,0,25,0,6,1,1,1,14,27,22,24,28,0,0,0,0,0,1,12,6,0,0,7,15,6,6,0,12,0,0,0,0,4,3,30,0,416.txt
15,3,2,29,3,2,3,23,3,2,2,2,2,2,2,2,2,2,2,2,3,3,1,1,1,14,27,22,24,28,1,1,1,1,1,1,1,1,1,1,1,5,1,1,1,1,1,1,1,1,4,1,1,1,417.txt
23,26,3,2,0,4,0,0,0,0,27,24,3,28,26,25,0,22,0,25,0,6,1,1,1,14,27,22,24,28,1,1,1,1,1,9,1,1,1,1,1,0,1,1,1,1,1,1,1,1,1,1,1,1,419.txt
23,0,3,2,0,4,0,0,0,2,14,2,4,1,2,6,9,13,8,19,4,4,1,1,1,14,27,22,24,28,5,8,9,8,0,1,7,2,0,0,24,23,25,19,23,12,0,0,0,0,8,8,30,0,421.txt
23,0,3,2,0,4,0,0,0,0,14,0,13,28,26,25,0,22,0,25,0,6,1,1,1,14,27,22,24,28,1,1,1,1,1,1,1,1,1,1,1,15,1,1,1,1,1,1,1,1,1,1,1,1,423.txt
23,26,3,20,0,4,0,0,0,0,27,24,3,0,0,20,0,20,0,25,0,6,5,5,5,0,0,0,0,0,0,0,0,0,0,0,12,6,0,0,7,15,6,6,0,13,0,0,0,0,8,3,30,15,425.txt
23,0,3,2,0,4,0,0,0,0,14,0,13,28,26,25,0,22,0,25,0,6,29,10,29,14,27,22,24,28,1,1,1,1,1,2,1,1,1,1,1,15,1,1,1,1,1,1,1,1,1,1,1,1,427.txt
23,0,3,2,0,4,0,0,0,0,14,0,13,28,26,25,0,22,0,25,0,6,1,1,1,14,27,22,24,28,1,1,1,1,1,3,1,1,1,1,1,15,1,1,1,1,1,1,1,1,1,1,1,1,430.txt
23,0,3,2,0,4,0,0,0,0,14,0,13,28,26,25,0,22,0,25,0,6,29,10,29,12,11,0,10,10,0,0,0,0,0,0,12,6,0,0,7,15,6,6,0,12,0,0,0,0,0,3,30,0,434.txt
23,0,3,2,0,4,0,0,0,0,14,0,13,28,26,25,0,22,0,25,0,6,1,1,1,14,27,22,24,28,5,8,9,8,7,1,12,6,3,3,7,15,6,6,7,12,8,5,5,9,4,8,30,19,436.txt
23,0,3,2,0,4,0,0,0,0,14,0,13,28,26,25,0,22,0,25,0,6,1,1,1,14,27,22,24,28,1,1,1,1,1,1,1,1,1,1,1,15,1,1,1,1,1,1,1,1,1,1,1,1,439.txt
23,0,3,2,0,4,0,0,0,0,14,0,13,28,26,25,0,22,0,25,0,6,1,1,1,14,27,22,24,28,5,4,4,4,4,1,12,6,2,2,7,17,6,6,16,12,3,3,3,3,1,14,0,0,444.txt
23,0,3,2,0,4,0,0,0,0,14,0,13,28,26,25,0,22,0,25,0,6,1,1,1,14,27,22,24,28,0,0,0,0,7,1,12,6,3,3,7,15,6,6,0,12,4,5,5,4,4,3,30,0,447.txt
23,0,3,20,0,24,5,21,5,0,14,0,13,10,8,20,0,20,0,25,0,6,2,2,2,18,2,6,14,14,27,15,12,15,29,15,12,6,11,11,7,0,6,6,16,4,14,7,8,28,8,8,30,22,449.txt
23,0,3,2,0,4,0,0,0,0,14,0,13,28,26,25,0,22,0,25,0,6,1,1,1,14,27,22,24,28,1,1,1,1,1,1,1,1,1,1,1,15,1,1,1,1,1,1,1,1,1,1,1,1,452.txt
23,0,3,2,0,4,0,0,0,0,14,0,13,28,26,25,0,22,0,25,0,6,1,1,1,0,0,0,0,0,0,0,0,0,12,1,12,6,0,0,7,15,6,6,0,13,0,0,0,0,4,12,0,15,454.txt
23,0,3,2,0,4,0,0,0,0,14,0,13,28,26,25,0,22,0,25,0,6,1,1,1,14,27,22,24,28,5,0,0,0,0,1,12,6,0,0,7,15,6,6,7,5,0,0,0,0,4,3,6,7,456.txt
23,0,3,2,0,4,0,0,0,0,14,0,13,28,26,25,0,22,0,25,0,6,1,1,1,14,27,22,24,28,1,1,1,1,1,1,1,1,1,1,1,15,1,1,1,1,1,1,1,1,4,1,1,1,458.txt
23,0,3,2,0,4,0,0,0,0,14,0,13,28,26,25,0,22,0,25,0,6,1,1,1,0,0,0,0,0,0,0,0,0,7,1,3,3,0,0,7,15,6,6,0,12,0,0,0,0,9,3,30,0,460.txt
23,0,3,2,0,4,0,0,0,0,14,0,13,28,26,25,0,22,0,25,0,6,29,10,29,6,6,9,6,6,0,8,9,8,7,12,12,6,3,3,7,15,6,6,0,12,8,12,13,9,9,3,30,0,463.txt
23,0,3,2,0,4,0,0,0,0,14,0,13,28,26,25,0,22,0,25,0,6,29,10,29,0,0,0,0,0,0,0,0,0,0,0,12,6,0,0,7,15,6,6,0,12,0,0,0,0,0,3,30,0,465.txt
23,0,3,2,0,4,0,0,0,0,14,0,13,28,26,25,0,22,0,25,0,6,29,10,29,0,0,0,0,0,0,0,0,0,0,0,12,6,0,0,7,15,6,6,0,12,0,0,0,0,0,3,6,0,469.txt
15,3,1,1,3,2,1,12,1,2,2,2,2,2,2,16,11,13,9,1,16,14,1,1,1,14,27,22,24,28,15,15,12,15,3,1,2,2,0,0,2,1,2,2,20,7,0,0,0,0,0,14,0,9,472.txt
23,0,3,2,0,4,0,0,0,0,14,0,13,28,26,25,0,22,0,25,0,6,9,21,27,6,6,12,6,6,0,22,29,28,15,15,12,6,19,20,7,15,6,6,0,25,4,12,13,4,8,3,30,25,473.txt
23,0,3,2,0,4,0,0,0,0,14,0,13,28,26,25,0,22,0,25,0,6,1,1,1,14,27,22,24,28,1,1,1,1,1,1,1,1,1,1,1,15,1,1,1,1,1,1,1,1,1,1,1,1,475.txt
23,0,3,2,0,4,0,0,0,0,14,0,13,28,26,25,0,22,0,25,0,6,1,1,1,14,27,22,24,28,0,0,0,0,0,1,12,6,0,0,7,15,6,6,0,12,0,0,0,0,4,3,30,0,477.txt
23,0,3,2,0,4,0,0,0,0,14,0,13,28,26,25,0,22,0,25,0,6,1,1,1,14,27,22,24,28,0,8,9,8,7,1,12,6,3,3,7,15,6,6,0,12,4,5,5,4,4,3,30,0,479.txt
23,0,3,2,0,4,0,0,0,0,14,0,13,28,26,25,0,22,0,25,0,6,29,10,29,0,0,0,0,0,0,0,0,0,0,0,12,6,3,3,7,15,6,6,0,12,4,5,5,4,4,3,30,0,481.txt
23,0,3,2,0,4,0,0,0,0,14,0,13,28,26,25,0,22,0,25,0,6,1,1,1,14,27,22,24,28,1,1,1,1,1,1,1,1,1,1,1,15,1,1,1,1,1,1,1,1,1,1,1,1,485.txt
23,0,3,2,0,4,0,0,0,0,14,0,13,28,26,25,0,22,0,0,0,6,1,1,1,14,27,22,24,28,1,1,1,1,1,1,1,1,1,1,1,15,1,1,1,1,1,1,1,1,4,1,1,1,487.txt
23,0,3,2,0,4,0,0,0,15,14,0,13,28,26,25,14,22,20,18,23,2,1,1,1,14,27,22,24,28,3,0,0,0,0,1,12,6,3,3,7,15,6,6,7,12,4,5,5,7,4,3,30,0,488.txt
23,0,3,2,0,4,0,0,0,0,14,0,13,28,26,25,0,22,0,25,0,6,1,1,1,14,27,22,24,28,1,1,1,1,1,1,1,1,1,1,1,15,1,1,1,1,1,1,1,1,4,1,1,1,491.txt
23,0,3,2,0,4,0,0,0,0,14,0,13,28,26,25,0,22,0,25,0,6,1,1,1,14,27,22,24,28,1,1,1,1,1,1,1,1,1,1,1,15,1,1,1,1,1,1,1,1,4,1,1,1,492.txt
23,0,3,2,0,4,0,0,0,0,14,0,13,28,26,25,0,22,0,25,0,6,29,10,29,0,0,0,0,0,0,0,0,0,0,0,12,6,0,0,7,15,6,6,0,12,0,0,0,0,9,3,6,0,494.txt
23,26,3,11,0,4,0,0,0,0,27,24,3,0,0,20,14,20,20,18,23,2,29,10,29,3,3,12,3,3,5,0,0,0,7,12,12,6,11,11,7,15,6,6,16,12,2,6,7,12,0,8,30,0,496.txt
23,0,3,2,0,4,0,0,0,0,14,0,13,28,26,25,0,22,0,25,0,6,29,10,29,14,27,22,24,28,1,1,1,1,1,2,1,1,1,1,1,15,1,1,1,1,1,1,1,1,1,1,1,1,498.txt
23,0,3,2,0,4,0,0,0,0,14,0,13,28,26,25,0,22,0,25,0,6,1,1,1,14,27,22,24,28,1,1,1,1,1,1,1,1,1,1,1,3,1,1,1,1,1,1,1,1,1,1,1,1,500.txt
23,0,3,2,0,4,6,6,7,0,14,0,13,28,26,25,0,22,0,25,0,6,9,13,27,0,0,11,0,0,19,0,0,0,0,14,12,6,11,11,7,15,6,6,16,7,12,6,7,11,0,8,30,9,502.txt
23,0,3,2,0,4,0,0,0,0,14,0,13,28,26,25,0,22,0,25,0,6,1,1,1,0,0,0,0,0,0,0,0,0,0,1,12,23,3,3,7,15,6,6,0,13,4,5,5,4,4,12,9,15,503.txt
23,0,3,2,0,4,0,0,0,0,14,0,13,28,26,25,0,22,0,25,0,6,2,2,2,0,0,9,0,0,0,0,0,0,0,14,12,6,3,3,7,15,6,6,0,13,4,6,7,4,0,3,30,15,505.txt
23,0,3,2,0,4,0,0,0,0,14,0,13,28,26,25,0,22,0,25,0,6,1,1,1,14,27,22,24,28,1,1,1,1,1,1,1,1,1,1,1,15,1,1,1,1,1,1,1,1,4,1,1,1,507.txt
23,0,3,2,0,4,0,0,0,0,14,0,13,28,26,25,0,22,0,25,0,6,1,1,1,6,6,4,6,6,7,23,13,18,28,1,12,6,3,3,7,15,6,6,0,12,13,9,10,6,9,3,30,0,510.txt
23,0,3,2,0,10,0,0,0,0,14,0,13,28,26,25,0,22,0,25,0,6,1,1,1,14,27,22,24,28,1,1,1,1,1,1,1,1,1,1,1,15,1,1,1,1,1,1,1,1,4,1,1,1,513.txt
23,0,3,2,0,4,0,0,0,0,14,0,13,28,26,25,0,22,0,25,0,6,1,1,1,14,27,22,24,28,1,1,1,1,1,1,1,1,1,1,1,15,1,1,1,1,1,1,1,1,1,1,1,1,516.txt
23,0,3,20,0,4,0,0,0,0,14,0,13,0,0,20,0,20,0,25,0,6,2,2,2,0,0,5,0,0,21,0,0,0,0,6,12,23,11,11,7,15,6,6,0,26,4,6,7,4,0,28,14,6,518.txt
15,11,1,1,10,14,23,23,26,29,8,9,9,5,18,28,11,13,14,24,10,8,29,10,29,18,11,12,14,14,27,10,9,8,7,12,23,8,26,9,20,7,8,8,10,12,2,9,10,12,13,8,30,0,521.txt
15,3,2,27,3,2,23,23,26,8,2,21,7,21,2,5,4,6,5,19,16,14,2,2,2,14,27,22,24,28,18,8,9,8,7,11,21,2,19,29,24,22,12,20,23,15,12,10,11,2,26,10,30,9,524.txt
23,4,3,20,12,4,0,0,0,8,1,1,1,1,1,1,1,1,1,1,22,17,29,10,29,0,0,0,0,0,15,0,0,0,0,0,16,25,0,0,2,1,2,2,19,12,0,0,0,0,8,8,6,0,527.txt
23,0,3,2,0,4,0,0,0,0,14,0,13,28,26,25,0,22,0,25,0,6,1,1,1,14,27,22,24,28,1,1,1,1,1,1,1,1,1,1,1,3,1,1,1,1,1,1,1,1,1,1,1,1,529.txt
23,0,3,2,0,4,0,0,0,0,14,0,13,28,26,25,0,22,0,25,0,6,1,1,1,14,27,22,24,28,0,0,0,0,7,1,12,23,26,9,7,15,6,6,0,13,4,5,5,4,4,14,12,15,530.txt
23,0,3,2,0,4,0,0,0,0,14,0,13,28,26,25,0,22,0,25,0,6,1,1,1,14,27,22,24,28,0,0,0,0,0,1,12,6,0,0,7,15,6,6,0,13,0,0,0,0,4,3,30,15,532.txt
23,0,3,2,0,4,0,0,0,0,14,0,13,28,26,25,0,22,0,25,0,6,5,5,5,0,0,0,0,0,0,0,0,0,0,0,12,6,0,0,7,15,6,6,0,13,0,0,0,0,0,3,6,15,534.txt
23,0,3,2,0,4,0,0,0,0,14,0,13,28,26,25,0,22,0,25,0,6,1,1,1,14,27,22,24,28,1,1,1,1,1,1,1,1,1,1,1,15,1,1,1,1,1,1,1,1,1,1,1,1,536.txt
23,0,3,2,0,4,0,0,0,0,14,0,13,28,26,25,0,22,0,25,0,6,1,1,1,14,27,22,24,28,1,1,1,1,1,1,1,1,1,1,1,3,1,1,1,1,1,1,1,1,1,1,1,1,538.txt
23,0,3,20,24,4,0,0,0,0,14,0,13,0,0,20,0,20,0,25,0,6,9,21,27,0,0,14,0,0,0,0,0,0,0,11,13,23,3,3,3,18,3,3,17,14,4,6,7,4,0,12,0,16,541.txt
23,0,3,2,0,4,0,0,0,0,14,0,13,28,26,25,0,22,0,25,0,6,1,1,1,14,27,22,24,28,1,1,1,1,1,1,1,1,1,1,4,3,4,4,4,9,0,0,0,0,4,2,2,0,543.txt
23,0,3,2,0,4,0,0,0,0,14,0,13,28,26,25,0,22,0,25,0,6,1,1,1,14,21,22,24,21,1,1,1,1,1,1,1,1,1,1,1,15,1,1,1,1,1,1,1,1,1,1,1,1,545.txt
23,0,3,2,0,4,0,0,0,0,14,0,13,28,26,25,0,22,0,25,0,6,1,1,1,14,27,22,24,28,1,1,1,1,1,3,1,1,1,1,1,15,1,1,1,1,1,1,1,1,1,1,1,1,549.txt
23,0,3,2,0,4,0,0,0,0,14,0,13,28,26,25,0,22,0,25,0,6,1,1,1,0,0,0,0,0,0,0,0,0,0,1,12,4,3,3,7,15,6,6,0,13,4,26,25,4,0,3,30,15,551.txt
23,0,3,2,0,4,0,0,0,0,14,0,13,28,26,25,0,22,0,25,0,6,1,1,1,14,27,22,24,28,0,0,0,0,0,1,12,6,0,0,4,3,4,4,4,12,0,0,0,0,4,3,3,0,554.txt
23,0,3,2,0,4,0,0,0,0,14,0,13,28,26,25,0,22,0,25,0,6,29,10,29,0,0,0,0,0,0,0,0,0,0,0,12,6,0,0,7,15,6,6,0,12,0,0,0,0,22,12,0,0,557.txt
23,0,3,20,0,4,0,0,0,0,14,0,13,0,0,20,0,20,0,25,0,6,29,10,29,6,6,0,6,6,0,0,0,0,0,0,12,6,0,0,7,15,6,6,0,12,0,0,0,0,8,3,30,0,558.txt
23,0,3,2,0,4,0,0,0,0,14,0,13,28,26,25,0,22,0,25,0,6,1,1,1,0,0,0,0,0,0,0,0,0,0,1,12,6,0,0,7,15,6,6,0,12,0,0,0,0,4,3,6,0,561.txt
26,4,17,10,2,1,1,23,1,1,1,1,1,8,20,1,1,1,1,9,22,17,29,10,29,0,0,12,0,0,0,0,0,0,5,12,2,25,11,11,18,25,25,10,11,12,4,6,7,4,0,12,21,0,564.txt
23,0,3,2,0,4,0,0,0,0,14,0,13,28,26,25,0,22,0,25,0,6,1,1,1,14,27,22,24,28,0,8,9,8,7,1,12,6,3,3,7,15,6,6,0,12,4,6,7,4,0,3,30,0,566.txt
23,0,3,2,0,4,0,0,0,0,14,0,13,28,26,25,0,22,0,25,0,6,29,10,29,0,0,0,0,0,0,0,0,0,0,0,12,4,0,0,7,15,6,6,0,12,0,0,0,0,0,3,30,0,568.txt
23,0,3,2,0,4,0,0,0,0,14,0,13,28,26,25,0,22,0,25,0,6,1,1,1,14,27,22,24,28,0,0,0,0,0,1,12,4,0,0,7,15,6,6,0,12,0,0,0,0,8,3,30,0,572.txt
23,0,3,2,0,4,0,0,0,0,14,0,13,28,26,25,0,22,0,25,0,6,1,1,1,14,27,22,24,28,1,1,1,1,1,1,1,1,1,1,1,15,1,1,1,1,1,1,1,1,8,1,1,1,574.txt
23,0,3,2,0,4,0,0,0,0,14,0,13,28,26,25,0,22,0,25,0,6,1,1,1,14,27,22,24,28,0,15,3,15,0,1,12,6,3,3,4,3,4,4,4,12,4,5,5,4,4,3,3,0,576.txt
23,0,3,2,0,4,0,0,0,0,14,0,13,28,26,25,0,22,0,25,0,6,1,1,1,14,27,22,24,28,1,1,1,1,1,1,1,1,1,1,1,15,1,1,1,1,1,1,1,1,1,1,1,1,578.txt
23,0,3,2,0,4,0,0,0,0,14,0,13,28,26,25,0,22,0,25,0,6,5,5,5,0,0,0,0,0,0,0,0,0,0,0,3,3,0,0,7,15,6,6,0,13,0,0,0,0,22,12,9,15,580.txt
23,0,3,2,0,4,0,0,0,0,14,0,13,28,26,25,0,22,0,25,0,6,1,1,1,14,27,22,24,28,1,1,1,1,1,1,1,1,1,1,1,15,1,1,1,1,1,1,1,1,4,1,1,1,582.txt
23,0,3,2,0,4,0,0,0,0,14,0,13,28,26,25,0,22,0,25,0,6,1,1,1,14,27,22,24,28,1,1,1,1,1,3,1,1,1,1,1,15,1,1,1,1,1,1,1,1,1,1,1,1,584.txt
6,3,1,1,3,2,1,23,1,1,2,13,17,21,2,11,13,11,19,1,22,17,29,10,29,14,27,22,24,28,15,8,9,8,0,0,2,2,0,0,24,22,15,19,2,12,0,0,0,0,0,8,30,0,586.txt
23,0,3,2,0,4,0,0,0,0,14,0,13,28,26,25,0,22,0,25,0,6,1,1,1,14,27,22,24,28,1,1,1,1,1,1,1,1,1,1,7,15,6,6,16,12,0,0,0,0,4,8,30,0,588.txt
23,0,3,2,0,4,0,0,0,0,14,0,13,28,26,25,0,22,0,25,0,6,19,7,7,14,27,22,24,28,18,8,9,8,7,19,6,11,2,2,7,15,6,6,6,5,8,12,13,9,9,3,30,7,591.txt
23,0,3,2,0,4,0,0,0,0,14,0,13,28,26,25,0,22,0,25,0,6,29,10,29,0,0,0,0,0,0,0,0,0,0,0,12,6,3,3,7,15,6,6,0,12,4,9,10,4,9,3,30,0,594.txt
23,0,3,2,0,4,0,0,0,0,14,0,13,28,26,25,0,22,0,25,0,6,1,1,1,14,21,22,24,21,1,1,1,1,1,1,1,1,1,1,1,15,1,1,1,1,1,1,1,1,1,1,1,1,596.txt
23,0,3,2,0,4,0,0,0,0,14,0,13,28,26,25,0,22,0,25,0,6,1,1,1,14,27,22,24,28,1,1,1,1,1,3,1,1,1,1,1,15,1,1,1,1,1,1,1,1,1,1,1,1,598.txt
23,0,3,2,0,4,0,0,0,0,14,0,13,28,26,25,0,22,0,25,0,6,1,1,1,14,27,22,24,28,1,1,1,1,1,3,1,1,1,1,7,15,6,6,7,12,0,0,0,0,2,8,30,0,600.txt
23,0,3,2,0,4,0,0,0,0,14,0,13,28,26,25,0,22,0,25,0,6,1,1,1,14,27,22,24,28,1,1,1,1,1,1,1,1,1,1,1,15,1,1,1,1,1,1,1,1,4,1,1,1,603.txt
23,0,3,2,0,4,0,0,0,0,14,0,13,28,26,25,0,22,0,25,0,6,29,10,29,0,0,0,0,0,0,0,0,0,0,0,12,6,0,0,7,15,6,6,0,12,0,0,0,0,0,3,30,0,604.txt
23,0,3,2,0,4,0,0,0,0,14,0,13,28,26,25,0,22,0,0,0,6,1,1,1,14,27,22,24,28,3,0,0,0,0,1,12,6,0,0,4,3,4,4,4,5,0,0,0,0,3,14,9,7,606.txt
23,0,3,2,0,4,0,0,0,0,14,0,13,28,26,25,0,22,0,25,0,6,1,1,1,14,27,22,24,28,1,1,1,1,1,1,1,1,1,1,1,15,1,1,1,1,1,1,1,1,4,1,1,1,607.txt
23,0,3,2,0,4,0,0,0,0,14,0,13,28,26,25,0,22,0,25,0,6,29,10,29,0,0,0,0,0,0,0,0,0,0,0,12,6,0,0,7,15,6,6,0,12,0,0,0,0,9,3,30,0,613.txt
23,0,3,2,0,4,0,0,0,0,14,0,13,28,26,25,0,22,0,25,0,6,1,1,1,14,27,22,24,28,1,1,1,1,1,1,1,1,1,1,1,15,1,1,1,1,1,1,1,1,1,1,1,1,615.txt
23,0,3,2,0,4,0,0,0,0,14,0,13,28,26,25,0,22,0,25,0,6,1,1,1,14,27,22,24,28,1,1,1,1,1,1,1,1,1,1,1,15,1,1,1,1,1,1,1,1,1,1,1,1,618.txt
23,0,3,2,0,4,0,0,0,0,14,0,13,28,26,25,0,22,0,25,0,6,1,1,1,14,27,22,24,28,1,1,1,1,1,3,1,1,1,1,1,17,1,1,1,1,1,1,1,1,1,1,1,1,621.txt
23,0,3,2,0,4,0,0,0,0,14,0,13,28,26,25,0,22,0,25,0,6,1,1,1,14,27,22,24,28,1,1,1,1,1,1,1,1,1,1,1,15,1,1,1,1,1,1,1,1,1,1,1,1,623.txt
26,4,25,25,30,14,23,23,24,29,8,30,7,23,18,17,11,15,9,10,10,8,29,10,29,6,6,12,6,6,5,8,9,8,7,12,23,18,19,18,20,20,25,20,23,12,4,9,10,7,8,8,30,0,624.txt
23,0,3,2,0,4,0,0,0,0,14,0,13,28,26,25,0,22,0,25,0,6,1,1,1,14,27,22,24,28,1,1,1,1,1,1,1,1,1,1,1,15,1,1,1,1,1,1,1,1,1,1,1,1,627.txt
23,0,3,2,0,4,0,0,0,0,14,0,13,28,26,25,0,22,0,25,0,6,1,1,1,14,27,22,24,28,1,1,1,1,1,1,1,1,1,1,1,15,1,1,1,1,1,1,1,1,4,1,1,1,628.txt
23,0,3,2,0,4,0,0,0,0,14,0,13,28,26,25,0,22,0,0,0,6,1,1,1,14,27,22,24,28,1,1,1,1,1,1,1,1,1,1,1,15,1,1,1,1,1,1,1,1,1,1,1,1,629.txt
11,3,2,21,1,2,23,23,14,2,2,2,2,2,2,10,11,27,14,29,10,8,4,4,9,9,25,27,27,26,27,26,21,21,25,3,19,15,27,25,29,27,27,20,28,12,15,9,10,18,14,8,30,19,631.txt
23,26,3,3,0,21,5,8,5,0,27,24,3,10,4,20,14,20,20,18,23,15,9,21,27,18,17,12,14,14,7,13,29,17,14,17,3,3,13,13,7,15,6,6,0,30,20,29,28,28,13,12,29,30,633.txt
23,0,3,2,0,4,0,0,0,0,14,0,13,28,26,25,0,22,0,25,0,6,1,1,1,14,27,22,24,28,1,1,1,1,1,1,1,1,1,1,1,15,1,1,1,1,1,1,1,1,4,1,1,1,635.txt
23,0,3,2,0,4,0,0,0,0,14,0,13,28,26,25,0,22,0,25,0,6,1,1,1,14,27,22,24,28,3,2,2,2,0,1,12,6,0,0,7,15,6,6,7,12,0,0,0,0,4,3,3,0,637.txt
23,0,3,2,0,4,0,0,0,0,14,0,13,28,26,25,0,22,0,25,0,6,1,1,1,14,27,22,24,28,1,1,1,1,1,1,1,1,1,1,1,17,1,1,1,1,1,1,1,1,4,1,1,1,642.txt
23,0,3,2,0,4,0,0,0,0,14,0,13,28,26,25,0,22,0,25,0,6,1,1,1,14,27,22,24,28,1,1,1,1,1,1,1,1,1,1,7,15,6,6,7,12,0,0,0,0,4,3,30,0,645.txt
15,28,1,1,3,7,29,13,28,26,22,30,20,18,16,12,10,8,14,9,21,29,27,17,19,6,6,10,6,6,29,8,7,7,7,22,19,14,7,7,6,24,16,23,29,20,4,12,13,4,16,17,12,18,647.txt
23,0,3,2,0,4,0,0,0,0,14,0,13,28,26,25,0,22,0,25,0,6,1,1,1,14,27,22,24,28,1,1,1,1,1,1,1,1,1,1,1,15,1,1,1,1,1,1,1,1,4,1,1,1,650.txt
23,0,3,2,0,4,0,0,0,0,14,0,13,28,26,25,0,22,0,25,0,6,29,10,29,6,6,4,6,6,0,0,0,0,0,12,12,6,3,3,7,15,6,6,0,12,27,6,7,21,0,3,30,0,652.txt
23,0,3,2,0,4,0,0,0,0,14,0,13,28,26,25,0,22,0,25,0,6,1,1,1,14,21,22,24,21,1,1,1,1,1,3,1,1,1,1,1,15,1,1,1,1,1,1,1,1,1,1,1,1,654.txt
23,0,3,2,0,4,0,0,0,0,14,0,13,28,26,25,0,22,0,25,0,6,1,1,1,0,0,9,0,0,0,0,0,0,0,1,12,6,3,3,7,15,6,6,0,12,4,6,7,4,0,3,30,0,657.txt
23,0,3,2,0,4,0,0,0,0,14,0,13,28,26,25,0,22,0,25,0,6,1,1,1,14,27,22,24,28,1,1,1,1,1,1,1,1,1,1,1,15,1,1,1,1,1,1,1,1,1,1,1,1,658.txt
23,0,3,20,0,4,6,6,7,0,14,0,13,10,8,20,0,20,0,25,0,6,29,10,29,10,2,6,8,8,3,4,4,4,4,2,12,6,2,2,25,15,14,15,16,12,3,3,3,3,1,8,3,0,662.txt
23,0,3,2,0,4,0,0,0,0,14,0,13,28,26,25,0,22,0,25,0,6,1,1,1,14,27,22,24,28,0,8,9,8,0,1,12,23,26,9,7,15,6,6,0,13,4,5,5,4,4,14,9,15,663.txt
23,0,3,2,0,4,0,0,0,0,14,0,13,28,26,25,0,22,0,25,0,6,1,1,1,14,27,22,24,28,1,1,1,1,1,1,1,1,1,1,1,15,1,1,1,1,1,1,1,1,1,1,1,1,665.txt
23,0,3,2,0,4,0,0,0,0,14,0,13,28,26,25,0,22,0,25,0,6,1,1,1,14,27,22,24,28,1,1,1,1,1,1,1,1,1,1,1,15,1,1,1,1,1,1,1,1,1,1,1,1,669.txt
23,0,3,2,0,4,0,0,0,0,14,0,13,28,26,25,0,22,0,25,0,6,1,1,1,14,27,22,24,28,0,8,9,8,6,1,6,10,3,3,7,15,6,6,0,13,4,5,5,4,4,2,2,15,671.txt
23,0,3,2,0,4,0,0,0,0,14,0,13,28,26,25,0,22,0,25,0,6,29,10,29,6,6,4,6,6,10,9,10,18,12,12,12,6,3,3,7,15,6,6,0,12,5,5,5,5,4,3,30,0,673.txt
23,0,3,2,0,4,0,0,0,0,14,0,13,28,26,25,0,22,0,25,0,6,1,1,1,14,27,22,24,28,1,1,1,1,1,1,1,1,1,1,7,15,6,6,0,12,0,0,0,0,4,3,30,0,675.txt
26,4,17,10,2,1,1,23,1,1,1,1,1,1,1,1,1,1,1,1,22,17,29,10,29,0,0,0,0,0,0,0,0,0,0,0,2,2,0,0,2,1,2,2,2,12,0,0,0,0,0,12,0,0,678.txt
23,0,3,2,0,4,0,0,0,0,14,0,13,28,26,25,0,22,0,25,0,6,1,1,1,14,27,22,24,28,1,1,1,1,1,1,1,1,1,1,1,15,1,1,1,1,1,1,1,1,4,1,1,1,680.txt
23,0,3,2,0,4,0,0,0,0,14,0,13,28,26,25,0,22,0,25,0,6,1,1,1,14,27,22,24,28,1,1,1,1,1,1,1,1,1,1,1,15,1,1,1,1,1,1,1,1,1,1,1,1,683.txt
23,0,3,2,0,4,0,0,0,0,14,0,13,28,26,25,0,22,0,25,0,6,1,1,1,14,27,22,24,28,1,1,1,1,1,3,1,1,1,1,1,15,1,1,1,1,1,1,1,1,1,1,1,1,685.txt
23,0,3,2,0,4,0,0,0,0,14,0,13,28,26,25,0,22,0,25,0,6,1,1,1,14,27,22,24,28,1,1,1,1,1,1,1,1,1,1,1,15,1,1,1,1,1,1,1,1,1,1,1,1,687.txt
23,0,3,2,0,4,0,0,0,0,14,0,13,28,26,25,0,22,0,25,0,6,1,1,1,14,27,22,24,28,1,1,1,1,1,1,1,1,1,1,1,15,1,1,1,1,1,1,1,1,4,1,1,1,689.txt
23,0,3,2,0,4,0,0,0,0,14,0,13,28,26,25,0,22,0,25,0,6,29,10,29,6,6,4,6,6,7,22,25,18,15,12,12,6,3,3,7,15,6,6,0,12,30,9,10,24,9,12,21,0,691.txt
26,4,30,29,3,14,23,23,25,8,8,28,7,5,18,17,9,15,29,24,15,14,7,26,6,18,9,12,14,14,5,8,9,8,7,14,16,25,23,22,23,25,25,22,20,15,13,12,13,6,22,16,23,9,695.txt
23,0,3,2,0,4,0,0,0,0,14,0,13,28,26,25,0,22,0,0,0,6,1,1,1,14,27,22,24,28,1,1,1,1,1,1,1,1,1,1,1,15,1,1,1,1,1,1,1,1,4,1,1,1,696.txt
23,4,3,2,3,4,0,0,0,2,8,2,7,1,1,5,4,13,5,19,10,8,1,1,1,0,0,14,0,0,0,0,0,0,0,1,16,2,14,14,2,1,2,2,2,12,0,25,0,0,26,3,30,0,700.txt
23,0,3,2,24,4,0,0,0,0,14,0,13,30,29,25,0,22,0,25,0,6,1,1,1,0,0,4,0,0,0,0,0,0,0,1,12,6,3,3,4,3,4,4,4,13,4,5,5,4,4,12,9,15,703.txt
26,3,2,29,3,2,23,12,13,8,7,23,7,26,9,10,11,17,14,5,14,24,21,26,28,30,22,23,25,22,5,15,12,15,21,27,20,25,11,11,23,20,27,20,11,10,14,7,8,11,23,13,23,10,705.txt
23,0,3,2,0,4,0,0,0,0,14,0,13,28,26,25,0,22,0,25,0,6,1,1,1,14,27,22,24,28,1,1,1,1,1,1,1,1,1,1,7,15,6,6,0,12,0,0,0,0,4,3,30,0,706.txt
23,0,3,2,0,10,0,0,0,0,14,0,13,28,26,25,0,22,0,25,0,6,29,10,29,14,27,22,24,28,5,15,12,15,0,0,12,6,0,0,7,15,6,6,16,12,0,0,0,0,0,3,30,0,709.txt
23,0,3,2,0,4,0,0,0,0,14,0,13,28,26,25,0,22,0,25,0,6,1,1,1,14,27,22,24,28,0,0,0,0,2,1,12,6,4,4,7,15,6,6,0,12,15,6,7,12,0,3,30,0,711.txt
23,0,3,2,0,10,0,0,0,0,14,0,13,28,26,25,0,22,0,25,0,6,1,1,1,14,27,22,24,28,21,19,21,24,24,1,12,4,3,3,7,15,6,6,16,4,18,22,23,12,21,8,30,25,712.txt
23,26,3,20,0,4,0,0,0,0,27,24,3,0,0,20,0,20,0,25,0,6,29,10,29,3,3,12,3,3,9,5,5,5,5,12,13,6,28,12,7,15,6,6,16,12,11,9,10,2,8,8,30,0,713.txt
23,26,3,20,0,4,0,0,0,0,27,24,3,0,0,20,0,20,0,25,0,6,22,24,23,14,22,23,25,22,3,4,4,4,4,2,3,3,2,2,25,15,14,15,16,9,3,3,3,3,1,27,7,3,716.txt
23,0,3,20,0,4,0,0,0,0,14,0,13,0,0,20,0,20,0,25,0,6,29,10,29,0,0,0,0,0,0,0,0,0,0,0,12,7,0,0,7,15,6,6,0,12,0,0,0,0,0,3,30,0,722.txt
23,0,3,2,0,4,0,0,0,0,14,0,13,28,26,25,0,22,0,25,0,6,1,1,1,14,27,22,24,28,3,0,0,0,0,1,12,6,0,0,7,15,6,6,6,5,0,25,0,0,4,14,9,7,724.txt
23,0,3,20,0,4,6,6,7,0,14,0,13,10,8,20,0,20,0,25,0,6,29,10,29,10,2,6,8,8,4,4,4,4,4,2,6,11,2,2,25,0,14,15,16,12,3,3,3,3,1,8,3,19,727.txt
23,0,3,2,0,4,0,0,0,0,14,0,13,28,26,25,0,22,0,25,0,6,29,10,29,0,0,0,0,0,0,0,0,0,12,0,12,6,0,0,7,15,6,6,0,12,0,0,0,0,0,3,30,0,728.txt
23,0,3,2,0,4,0,0,0,0,14,0,13,28,26,25,0,22,0,25,0,6,1,1,1,14,27,22,24,28,1,1,1,1,1,1,1,1,1,1,1,15,1,1,1,1,1,1,1,1,1,1,1,1,732.txt
23,0,3,2,0,4,0,0,0,0,14,0,13,28,26,25,0,22,0,25,0,6,1,1,1,14,27,22,24,28,1,1,1,1,1,1,1,1,1,1,1,15,1,1,1,1,1,1,1,1,4,1,1,1,734.txt
23,0,3,2,0,4,0,0,0,0,14,0,13,28,26,25,0,22,0,25,0,6,5,5,5,0,0,0,0,0,15,0,0,0,0,0,12,6,0,0,7,15,6,6,16,6,0,0,0,0,0,8,6,8,735.txt
23,0,3,2,0,4,0,0,0,0,14,0,13,28,26,25,0,22,0,25,0,6,1,1,1,14,27,22,24,28,0,0,0,0,0,1,12,6,3,3,7,15,6,6,0,12,4,5,5,4,4,3,30,0,737.txt
23,0,3,2,0,4,0,0,0,0,14,0,13,28,26,25,0,22,0,25,0,6,1,1,1,14,27,22,24,28,1,1,1,1,1,1,1,1,1,1,1,15,1,1,1,1,1,1,1,1,4,1,1,1,738.txt
23,0,3,2,0,4,0,0,0,0,14,0,13,28,26,25,0,22,0,25,0,6,1,1,1,14,27,22,24,28,1,1,1,1,1,3,1,1,1,1,1,15,1,1,1,1,1,1,1,1,1,1,1,1,741.txt
23,0,3,2,0,4,0,0,0,0,14,0,13,28,26,25,0,22,0,25,0,6,1,1,1,14,27,22,24,28,1,1,1,1,1,1,1,1,1,1,1,16,1,1,1,1,1,1,1,1,4,1,1,1,743.txt
23,0,3,2,0,4,0,0,0,0,14,0,13,28,26,25,0,22,0,25,0,6,1,1,1,14,27,22,24,28,1,1,1,1,1,1,1,1,1,1,1,15,1,1,1,1,1,1,1,1,4,1,1,1,747.txt
23,0,3,20,0,4,0,0,0,0,14,0,13,0,0,20,0,20,0,25,0,6,29,10,29,3,3,12,3,3,0,0,0,0,5,12,13,6,11,11,7,15,6,6,0,12,11,6,7,11,0,3,30,0,748.txt
23,0,3,2,0,4,0,0,0,0,14,0,13,28,26,25,0,22,0,25,0,6,1,1,1,14,27,22,24,28,0,0,0,0,0,1,12,6,0,0,4,3,4,4,4,12,0,0,0,0,4,3,3,0,751.txt
23,3,2,29,3,2,0,0,0,22,7,30,9,7,9,17,16,17,14,24,15,12,2,2,2,14,4,3,4,16,5,4,4,4,4,29,20,15,23,19,14,6,21,20,27,6,3,29,28,3,1,10,30,8,755.txt
23,0,3,2,0,10,0,0,0,0,14,0,13,28,26,25,0,22,0,25,0,6,2,2,2,12,2,0,10,10,0,15,12,15,3,0,12,4,0,0,7,15,6,6,0,13,0,0,0,0,0,12,0,15,756.txt
23,0,3,2,0,4,0,0,0,0,14,0,13,28,26,25,0,22,0,25,0,6,1,1,1,14,27,22,24,28,1,1,1,1,1,1,1,1,1,1,1,3,1,1,1,1,1,1,1,1,4,1,1,1,760.txt
23,0,3,2,0,4,0,0,0,0,14,0,13,28,26,25,0,22,0,25,0,6,1,1,1,14,27,22,24,28,1,1,1,1,1,3,1,1,1,1,1,17,1,1,1,1,1,1,1,1,1,1,1,1,765.txt
23,0,3,2,0,10,0,0,0,0,14,0,13,28,26,25,0,22,0,25,0,6,1,1,1,14,21,22,24,21,5,15,3,15,3,3,12,6,0,0,7,16,6,6,16,12,0,0,0,0,1,14,9,0,766.txt
23,0,3,2,0,4,0,0,0,0,14,0,13,28,26,25,0,22,0,25,0,6,1,1,1,14,27,22,24,28,1,1,1,1,1,1,1,1,1,1,7,15,6,6,0,12,0,0,0,0,4,3,30,0,768.txt
23,0,3,2,0,4,0,0,0,0,14,0,13,28,26,25,0,22,0,25,0,6,29,10,29,0,0,0,0,0,5,0,0,0,0,0,12,6,0,0,7,15,6,6,16,12,0,0,0,0,0,3,30,0,771.txt
23,0,3,2,0,4,0,0,0,0,14,0,13,28,26,25,0,22,0,25,0,6,1,1,1,14,27,22,24,28,0,0,0,0,0,1,12,6,0,0,7,15,6,6,0,12,0,0,0,0,4,3,30,0,772.txt
23,0,3,2,0,4,0,0,0,0,14,0,13,28,26,25,0,22,0,25,0,6,1,1,1,14,27,22,24,28,1,1,1,1,1,3,1,1,1,1,1,15,1,1,1,1,1,1,1,1,1,1,1,1,773.txt
23,0,3,2,0,4,0,0,0,0,14,0,13,28,26,25,0,22,0,25,0,6,1,1,1,14,27,22,24,28,1,1,1,1,1,1,1,1,1,1,1,15,1,1,1,1,1,1,1,1,4,1,1,1,775.txt
23,0,3,2,0,4,0,0,0,0,14,0,13,28,26,25,0,22,0,25,0,6,5,5,5,0,0,0,0,0,19,0,0,0,0,0,13,23,0,0,7,0,6,6,16,5,0,0,0,0,30,0,0,7,777.txt
23,0,3,2,0,4,0,0,0,0,14,0,13,28,26,25,0,22,0,25,0,6,29,10,29,0,0,12,0,0,5,23,29,30,28,12,12,6,3,3,7,15,6,6,16,12,4,7,8,7,8,7,30,0,779.txt
23,0,3,2,0,4,0,0,0,0,14,0,13,28,26,25,0,22,0,25,0,6,1,1,1,14,27,22,24,28,1,1,1,1,1,1,1,1,1,1,1,15,1,1,1,1,1,1,1,1,1,1,1,1,781.txt
23,0,3,2,0,4,0,0,0,0,14,0,13,28,26,25,0,22,0,25,0,6,1,1,1,14,27,22,24,28,1,1,1,1,1,1,1,1,1,1,7,15,6,6,0,12,0,0,0,0,4,3,6,0,785.txt
23,0,3,2,0,4,0,0,0,0,14,0,13,28,26,25,0,22,0,25,0,6,1,1,1,14,27,22,24,28,1,1,1,1,1,1,1,1,1,1,1,15,1,1,1,1,1,1,1,1,1,1,1,1,787.txt
23,3,3,2,3,4,0,0,0,2,2,2,2,2,2,5,4,10,5,1,20,29,1,1,1,14,27,22,24,28,0,0,0,0,7,1,30,25,0,0,12,5,25,20,2,12,0,0,0,0,4,3,30,0,790.txt
23,0,3,2,0,4,0,0,0,0,14,0,13,28,26,25,0,22,0,25,0,6,1,1,1,6,6,9,6,6,0,0,0,0,7,1,12,6,3,3,7,15,6,6,0,12,4,7,8,4,9,3,30,0,792.txt
23,0,3,2,0,4,0,0,0,0,14,0,13,28,26,25,0,22,0,25,0,6,29,10,29,0,0,0,0,0,0,0,0,0,0,0,12,6,0,0,7,15,6,6,0,12,0,0,0,0,0,3,30,0,796.txt
23,0,3,2,0,4,0,0,0,0,14,0,13,28,26,25,0,22,0,25,0,6,1,1,1,14,27,22,24,28,0,0,0,0,0,1,12,6,0,0,7,15,6,6,0,12,0,0,0,0,4,3,30,0,800.txt
23,0,3,2,0,4,0,0,0,0,14,0,13,28,26,25,0,22,0,25,0,6,1,1,1,14,27,22,24,28,1,1,1,1,1,1,1,1,1,1,7,15,6,6,0,12,4,5,5,4,4,3,30,0,802.txt
23,0,3,20,0,4,6,6,7,0,14,0,13,0,0,20,0,20,0,25,0,6,2,2,2,3,3,12,3,3,0,5,5,5,5,19,12,6,15,15,7,15,6,6,0,13,4,12,13,4,13,12,15,15,806.txt
23,0,3,2,0,4,0,0,0,0,14,0,13,28,26,25,0,22,0,25,0,6,1,1,1,14,27,22,24,28,1,1,1,1,1,1,1,1,1,1,1,15,1,1,1,1,1,1,1,1,1,1,1,1,807.txt
23,0,3,2,0,4,0,0,0,0,14,0,13,28,26,25,0,22,0,0,0,6,1,1,1,14,27,22,24,28,1,1,1,1,1,1,1,1,1,1,1,15,1,1,1,1,1,1,1,1,4,1,1,1,810.txt
23,0,3,2,0,4,0,0,0,0,14,0,13,28,26,25,0,22,0,25,0,6,1,1,1,14,27,22,24,28,1,1,1,1,1,1,1,1,1,1,1,15,1,1,1,1,1,1,1,1,1,1,1,1,813.txt
15,3,2,29,3,2,1,16,1,1,2,23,9,5,2,30,11,17,14,17,15,14,2,2,2,14,27,22,24,28,9,16,14,14,2,28,2,25,11,11,27,28,27,25,11,18,18,6,7,12,0,15,24,30,816.txt
23,0,3,2,0,4,6,6,7,0,14,0,13,28,26,25,0,22,0,25,0,6,29,10,29,14,27,22,24,28,1,1,1,1,1,2,1,1,1,1,1,15,1,1,1,1,1,1,1,1,1,1,1,1,817.txt
23,0,3,2,0,4,0,0,0,0,14,0,13,28,26,25,0,22,0,25,0,6,1,1,1,14,27,22,24,28,5,8,7,7,7,1,12,6,26,9,7,15,6,6,7,12,4,5,5,8,4,7,30,0,818.txt
23,0,3,2,0,10,0,0,0,0,14,0,13,28,26,25,0,22,0,25,0,6,29,10,29,14,27,22,24,28,1,1,1,1,1,2,1,1,1,1,1,0,1,1,1,1,1,1,1,1,1,1,1,1,821.txt
23,0,3,20,0,4,0,0,0,0,14,0,13,0,0,20,0,20,0,25,0,6,29,10,29,0,0,0,0,0,0,0,0,0,0,0,12,6,0,0,7,15,6,6,0,12,0,0,0,0,0,3,30,0,824.txt
23,0,3,2,0,4,0,0,0,0,14,0,13,28,26,25,0,22,0,25,0,6,1,1,1,14,27,22,24,28,0,8,9,8,7,1,12,6,3,3,7,15,6,6,0,12,4,15,21,4,11,3,30,3,827.txt
23,4,1,1,3,7,29,23,28,12,17,30,12,19,14,23,18,13,29,9,21,29,29,10,29,6,6,4,6,6,0,8,9,8,0,12,23,14,3,3,2,1,2,2,9,12,4,9,10,4,9,3,30,4,831.txt
23,0,3,2,0,4,0,0,0,0,14,0,13,28,26,25,0,22,0,25,0,6,1,1,1,14,27,22,24,28,1,1,1,1,1,1,1,1,1,1,1,15,1,1,1,1,1,1,1,1,4,1,1,1,832.txt
23,0,3,2,0,4,0,0,0,0,14,0,13,28,26,25,0,22,0,25,0,6,1,1,1,14,27,22,24,28,0,0,0,0,0,1,13,6,0,0,7,16,6,6,0,12,0,0,0,0,8,3,30,0,834.txt
23,0,3,2,0,4,0,0,0,0,14,0,13,28,26,25,0,22,0,25,0,6,1,1,1,14,27,22,24,28,0,8,9,8,0,1,12,23,3,3,7,15,6,6,0,13,4,5,5,4,4,14,9,15,836.txt
23,0,3,2,0,4,0,0,0,0,14,0,13,28,26,25,0,22,0,25,0,6,1,1,1,14,27,22,24,28,5,16,2,14,0,1,12,6,28,20,7,15,6,6,16,12,10,9,10,18,8,8,30,0,839.txt
23,3,3,2,3,4,0,0,0,2,2,2,2,2,2,2,11,13,9,10,10,8,1,1,1,14,27,22,24,28,1,1,1,1,1,1,1,1,1,1,12,5,17,19,19,12,4,5,5,4,4,3,30,0,842.txt
23,0,3,2,0,4,0,0,0,0,14,0,13,28,26,25,0,22,0,25,0,6,1,1,1,14,27,22,24,28,1,1,1,1,1,1,1,1,1,1,1,15,1,1,1,1,1,1,1,1,1,1,1,1,847.txt
23,0,3,2,0,4,0,0,0,0,14,0,13,28,26,25,0,22,0,25,0,6,1,1,1,14,27,22,24,28,1,1,1,1,1,3,1,1,1,1,1,15,1,1,1,1,1,1,1,1,1,1,1,1,851.txt
23,0,3,2,0,4,6,6,7,15,14,0,13,28,26,25,14,22,20,18,23,2,29,10,29,3,3,11,3,3,0,5,5,5,5,12,12,6,11,11,7,15,6,6,0,12,4,6,7,4,0,3,30,0,852.txt
23,0,3,2,0,4,0,0,0,0,14,0,13,28,26,25,0,22,0,25,0,6,1,1,1,14,27,22,24,28,9,4,4,4,4,1,12,6,4,4,7,15,6,6,16,12,3,9,10,3,1,8,30,0,855.txt
23,0,3,2,0,4,0,0,0,0,14,0,13,28,26,25,0,22,0,25,0,6,2,2,2,0,0,0,0,0,0,0,0,0,0,0,12,23,0,0,7,15,6,6,0,14,0,0,0,0,22,12,0,16,857.txt
23,0,3,2,0,4,0,0,0,0,14,0,13,28,26,25,0,22,0,25,0,27,1,1,1,14,27,22,24,28,1,1,1,1,1,3,28,29,1,24,1,15,1,1,1,1,1,1,1,1,1,1,1,1,859.txt
23,0,3,2,0,4,0,0,0,0,14,0,13,28,26,25,0,22,0,25,0,6,1,1,1,14,27,22,24,28,1,1,1,1,1,1,1,1,1,1,1,15,1,1,1,1,1,1,1,1,4,1,1,1,861.txt
23,0,3,2,0,4,0,0,0,0,14,0,13,28,26,25,0,22,0,25,0,6,1,1,1,14,27,22,24,28,1,1,1,1,1,9,1,1,1,1,1,0,1,1,1,1,1,1,1,1,1,1,1,1,864.txt
23,0,3,2,0,4,0,0,0,0,14,0,13,28,26,25,0,22,0,25,0,6,29,10,29,0,0,0,0,0,0,0,0,0,0,0,13,6,0,0,7,15,6,6,0,12,0,0,0,0,0,3,30,0,866.txt
23,0,3,20,0,4,0,0,0,0,14,0,13,0,0,20,0,20,0,25,0,6,29,10,29,3,3,9,3,3,0,0,0,0,15,12,12,6,3,3,3,18,3,3,17,12,13,8,9,6,8,3,30,0,868.txt
23,0,3,20,0,4,0,0,0,0,14,0,13,0,0,20,0,20,0,25,0,6,29,10,29,0,0,6,0,0,0,4,4,4,0,2,12,6,2,2,7,15,6,6,0,12,3,3,3,3,1,29,9,0,870.txt
23,0,3,2,0,4,0,0,0,0,14,0,13,28,26,25,0,22,0,25,0,6,1,1,1,14,27,22,24,28,1,1,1,1,1,1,1,1,1,1,1,15,1,1,1,1,1,1,1,1,4,1,1,1,872.txt
23,0,3,2,0,4,0,0,0,0,14,0,13,28,26,25,0,22,0,25,0,6,29,10,29,0,0,0,0,0,0,0,0,0,0,0,12,4,0,0,7,15,6,6,0,12,0,0,0,0,0,3,6,0,874.txt
23,0,3,2,0,4,0,0,0,0,14,0,13,28,26,25,0,22,0,25,0,6,1,1,1,14,27,22,24,28,1,1,1,1,1,1,1,1,1,1,1,15,1,1,1,1,1,1,1,1,1,1,1,1,879.txt
23,0,3,2,0,4,0,0,0,0,14,0,13,28,26,25,0,22,0,25,0,6,1,1,1,14,27,22,24,28,1,1,1,1,1,1,1,1,1,1,1,15,1,1,1,1,1,1,1,1,4,1,1,1,882.txt
23,0,3,2,0,4,0,0,0,0,14,0,13,28,26,25,0,22,0,25,0,6,29,10,29,18,11,12,14,14,5,10,6,6,7,12,12,6,11,11,7,15,6,6,16,12,16,7,8,18,6,8,30,0,884.txt
23,0,3,2,0,4,0,0,0,0,14,0,13,28,26,25,0,22,0,25,0,6,1,1,1,14,27,22,24,28,1,1,1,1,1,1,1,1,1,1,1,15,1,1,1,1,1,1,1,1,1,1,1,1,885.txt
23,0,3,2,0,4,0,0,0,0,14,0,13,28,26,25,0,22,0,25,0,6,1,1,1,14,27,22,24,28,1,1,1,1,1,3,1,1,1,1,1,15,1,1,1,1,1,1,1,1,1,1,1,1,886.txt
23,0,3,2,0,4,0,0,0,0,14,0,13,28,26,25,0,22,0,25,0,6,1,1,1,14,27,22,24,28,0,0,0,0,0,1,12,6,3,3,7,15,6,6,0,12,4,9,10,4,9,3,30,0,889.txt
23,0,3,2,0,4,0,0,0,0,14,0,13,28,26,25,0,22,0,25,0,6,1,1,1,14,27,22,24,28,1,1,1,1,1,3,1,1,1,1,1,15,1,1,1,1,1,1,1,1,1,1,1,1,891.txt
23,0,3,2,0,4,0,0,0,0,14,0,13,28,26,25,0,22,0,25,0,6,1,1,1,14,27,22,24,28,0,0,0,0,0,1,12,4,0,0,7,15,6,6,0,12,0,0,0,0,4,3,30,0,893.txt
23,0,3,2,0,4,0,0,0,0,14,0,13,28,26,25,0,22,0,25,0,6,29,10,29,0,0,0,0,0,0,0,0,0,0,0,12,6,0,0,7,15,6,6,0,12,0,0,0,0,0,3,30,0,896.txt
23,4,3,2,3,4,0,0,0,1,8,21,7,1,1,5,4,13,5,1,10,8,29,10,29,0,0,0,0,0,0,0,0,0,0,0,2,2,0,0,2,1,2,2,2,12,0,0,0,0,0,3,30,0,900.txt
23,0,3,2,0,4,0,0,0,0,14,0,13,28,26,25,0,22,0,25,0,6,1,1,1,14,27,22,24,28,1,1,1,1,1,1,1,1,1,1,1,15,1,1,1,1,1,1,1,1,4,1,1,1,902.txt
15,3,2,29,3,2,23,23,26,21,2,9,9,26,2,10,11,28,14,24,10,8,29,10,29,9,25,27,27,26,22,26,24,21,23,12,20,8,23,25,20,7,8,8,10,12,21,9,10,16,1,3,30,19,905.txt
23,0,3,2,0,4,0,0,0,0,14,0,13,28,26,25,0,22,0,25,0,6,1,1,1,14,27,22,24,28,1,1,1,1,1,1,1,1,1,1,1,15,1,1,1,1,1,1,1,1,4,1,1,1,907.txt
23,0,3,2,0,4,0,0,0,0,14,0,13,28,26,25,0,22,0,25,0,6,1,1,1,14,27,22,24,28,1,1,1,1,1,3,1,1,1,1,1,15,1,1,1,1,1,1,1,1,1,1,1,1,909.txt
23,0,3,2,0,4,0,0,0,0,14,0,13,28,26,25,0,22,0,25,0,6,29,10,29,0,0,0,0,0,0,0,0,0,0,0,12,6,0,0,7,15,6,6,0,12,0,0,0,0,0,3,30,0,911.txt
23,0,3,2,0,4,0,0,0,0,14,0,13,28,26,25,0,22,0,25,0,6,22,24,23,14,27,22,24,28,1,1,1,1,1,2,1,1,1,1,1,15,1,1,1,1,1,1,1,1,1,1,1,1,914.txt
15,4,1,1,3,7,29,23,28,12,1,1,1,8,20,1,1,1,1,9,22,17,29,10,29,24,15,9,22,25,0,5,5,29,5,12,24,18,17,10,12,23,25,27,29,12,6,9,10,6,9,3,30,0,917.txt
23,3,3,2,3,4,0,0,0,2,2,2,2,2,2,2,2,2,2,2,3,3,1,1,1,14,27,22,24,28,1,1,1,1,1,1,1,1,1,1,1,5,1,1,1,1,1,1,1,1,4,1,1,1,922.txt
23,0,3,2,0,4,0,0,0,0,14,0,13,28,26,25,0,22,0,25,0,6,1,1,1,14,27,22,24,28,1,1,1,1,1,1,1,1,1,1,1,15,1,1,1,1,1,1,1,1,1,1,1,1,924.txt
23,0,3,2,0,4,0,0,0,0,14,0,13,28,26,25,0,22,0,25,0,6,1,1,1,14,27,22,24,28,0,8,9,8,7,1,12,4,0,0,7,15,6,6,0,12,0,0,0,0,4,3,3,0,925.txt
23,0,3,2,0,4,0,0,0,0,14,0,13,28,26,25,0,22,0,0,0,6,1,1,1,14,27,22,24,28,0,8,9,8,0,1,12,6,3,3,7,15,6,6,0,12,4,5,5,4,4,3,30,0,926.txt
23,4,3,20,10,4,0,0,0,7,8,30,7,8,20,7,9,13,28,9,10,8,29,10,29,0,0,9,0,0,0,0,0,0,0,12,16,25,3,3,2,1,2,2,19,12,4,12,13,4,9,3,30,0,928.txt
23,0,3,2,0,4,0,0,0,0,14,0,13,28,26,25,0,22,0,25,0,6,1,1,1,5,5,4,5,5,0,0,0,0,7,1,12,6,3,3,7,15,6,6,0,12,4,5,5,4,4,3,30,0,930.txt
23,0,3,2,0,4,0,0,0,0,14,0,13,28,26,25,0,22,0,25,0,6,1,1,1,14,27,22,24,28,17,8,9,8,7,1,12,6,3,3,7,15,6,6,7,12,4,9,10,7,8,14,0,0,932.txt
15,3,1,1,3,2,3,24,3,2,2,2,2,2,2,2,2,2,2,2,3,3,1,1,1,14,27,22,24,28,1,1,1,1,1,1,1,1,1,1,1,5,1,1,1,1,1,1,1,1,1,1,1,1,935.txt
23,0,3,20,0,4,0,0,0,0,14,0,13,0,0,20,0,20,0,25,0,6,9,13,27,0,0,0,0,0,0,0,0,0,0,0,13,6,11,11,7,15,6,6,0,13,10,6,7,2,0,3,30,15,940.txt
23,0,3,2,0,4,0,0,0,0,14,0,13,28,26,25,0,22,0,25,0,6,1,1,1,14,27,22,24,28,0,0,0,0,0,1,12,23,0,0,7,15,6,6,0,12,0,0,0,0,4,14,9,0,942.txt
15,28,12,19,10,15,26,25,20,26,12,30,30,16,16,23,24,13,25,15,21,22,17,22,17,21,17,19,20,23,14,22,29,30,15,30,25,20,7,7,30,24,19,29,30,26,30,12,13,24,25,28,22,23,944.txt
23,0,3,2,0,4,0,0,0,0,14,0,13,28,26,25,0,22,0,25,0,6,1,1,1,14,27,22,24,28,1,1,1,1,1,1,1,1,1,1,1,15,1,1,1,1,1,1,1,1,4,1,1,1,946.txt
23,0,3,2,0,4,0,0,0,0,14,0,13,28,26,25,0,22,0,25,0,6,1,1,1,14,27,22,24,28,1,1,1,1,1,1,1,1,1,1,7,15,6,6,7,12,0,0,0,0,4,8,30,0,949.txt
23,0,3,2,0,10,0,0,0,0,14,0,13,28,26,25,0,22,0,25,0,6,2,2,2,14,27,22,24,28,5,15,12,15,0,2,12,6,0,0,7,15,6,6,16,5,0,0,0,0,1,8,3,7,951.txt
23,0,3,2,0,4,0,0,0,0,14,0,13,28,26,25,0,22,0,25,0,6,29,10,29,6,6,0,6,6,0,9,10,17,0,0,12,6,0,0,7,15,6,6,0,12,0,0,0,0,0,3,30,0,954.txt
23,0,3,20,0,4,0,0,0,0,14,0,13,0,0,20,0,20,0,25,0,6,0,0,0,14,27,22,24,28,1,1,1,1,1,2,1,1,1,1,1,15,1,1,1,1,1,1,1,1,1,1,1,1,956.txt
23,0,3,2,0,4,0,0,0,2,14,2,2,2,2,2,2,2,2,2,3,3,1,1,1,14,27,22,24,28,1,1,1,1,1,1,1,1,1,1,1,5,1,1,1,1,1,1,1,1,4,1,1,1,959.txt
23,0,3,2,0,4,0,0,0,0,14,0,13,28,26,25,0,22,0,25,0,6,1,1,1,14,27,22,24,28,1,1,1,1,1,1,1,1,1,1,1,15,1,1,1,1,1,1,1,1,1,1,1,1,961.txt
23,0,3,2,0,4,0,0,0,0,14,0,13,28,26,25,0,22,0,25,0,6,1,1,1,14,27,22,24,28,1,1,1,1,1,1,1,1,1,1,1,15,1,1,1,1,1,1,1,1,4,1,1,1,962.txt
23,0,3,2,0,4,0,0,0,0,14,0,13,28,26,25,14,22,20,18,23,2,1,1,1,14,27,22,24,28,19,0,0,0,0,1,12,6,3,3,7,15,6,6,7,12,4,6,7,7,0,3,30,0,964.txt
23,0,3,2,0,4,0,0,0,0,14,0,13,28,26,25,0,22,0,25,0,6,1,1,1,14,27,22,24,28,10,8,9,8,7,1,12,6,26,9,7,15,6,6,0,12,5,9,10,5,9,3,30,0,966.txt
23,0,3,2,0,4,0,0,0,0,14,0,13,28,26,25,0,22,0,25,0,6,1,1,1,14,27,22,24,28,0,0,0,0,7,1,12,6,2,2,7,15,6,6,0,12,4,5,5,4,4,3,30,0,968.txt
23,0,3,2,0,4,0,0,0,0,14,0,13,28,26,25,0,22,0,25,0,6,1,1,1,14,27,22,24,28,1,1,1,1,1,3,1,1,1,1,1,15,1,1,1,1,1,1,1,1,1,1,1,1,970.txt
23,0,3,2,0,4,0,0,0,0,14,0,13,28,26,25,0,22,0,25,0,6,1,1,1,14,27,22,24,28,1,1,1,1,1,3,1,1,1,1,1,15,1,1,1,1,1,1,1,1,1,1,1,1,974.txt
23,0,3,2,0,4,0,0,0,0,14,0,13,28,26,25,0,22,0,25,0,6,1,1,1,14,27,22,24,28,1,1,1,1,1,1,1,1,1,1,1,15,1,1,1,1,1,1,1,1,4,1,1,1,975.txt
23,0,3,2,0,4,0,0,0,0,14,0,13,28,26,25,0,22,0,25,0,27,1,1,1,14,27,22,24,28,21,26,24,24,24,1,6,11,26,9,7,15,6,6,7,18,15,12,13,18,7,17,22,28,979.txt
23,0,3,2,0,21,5,8,5,0,14,0,13,28,26,25,14,22,20,18,23,15,29,10,29,14,27,22,24,28,10,26,22,21,24,12,0,6,28,25,7,0,6,6,16,12,10,2,2,12,8,8,30,19,981.txt
23,0,3,2,0,4,0,0,0,0,14,0,13,28,26,25,0,22,0,25,0,6,1,1,1,14,27,22,24,28,0,0,0,0,0,1,12,6,0,0,7,15,6,6,0,12,0,0,0,0,4,3,30,0,987.txt
23,0,3,2,0,4,0,0,0,0,14,0,13,28,26,25,0,22,0,25,0,6,1,1,1,14,27,22,24,28,17,16,2,14,2,3,0,6,4,4,7,0,6,6,16,5,2,6,7,12,0,14,0,7,989.txt
15,4,1,1,3,7,29,23,28,2,17,2,18,18,12,23,22,13,10,1,20,22,1,1,1,5,5,0,5,5,0,8,9,8,7,1,25,2,0,0,6,25,16,9,9,28,0,0,0,0,4,2,2,13,994.txt
23,0,3,2,0,4,0,0,0,0,14,0,13,28,26,25,0,22,0,25,0,6,1,1,1,14,27,22,24,28,1,1,1,1,1,1,1,1,1,1,1,15,1,1,1,1,1,1,1,1,1,1,1,1,996.txt
23,0,3,2,0,4,0,0,0,0,14,0,13,28,26,25,0,22,0,25,0,6,1,1,1,14,27,22,24,28,1,1,1,1,1,1,1,1,1,1,7,15,6,6,6,12,0,0,0,0,4,8,30,0,998.txt
23,0,3,2,0,4,0,0,0,0,14,0,13,28,26,25,0,22,0,25,0,6,1,1,1,14,27,22,24,28,1,1,1,1,1,1,1,1,1,1,1,15,1,1,1,1,1,1,1,1,1,1,1,1,1002.txt
23,0,3,2,25,4,0,0,0,0,14,0,13,30,29,25,0,22,0,25,0,6,1,1,1,14,27,22,24,28,1,1,1,1,1,9,1,1,1,1,1,2,1,1,1,1,1,1,1,1,1,1,1,1,1005.txt
23,0,3,2,0,4,0,0,0,0,14,0,13,28,26,25,0,22,0,25,0,6,1,1,1,14,27,22,24,28,1,1,1,1,1,1,1,1,1,1,1,15,1,1,1,1,1,1,1,1,4,1,1,1,1008.txt
23,0,3,2,0,10,0,0,0,0,14,0,13,28,26,25,0,22,0,25,0,6,1,1,1,14,27,22,24,28,5,19,23,22,21,1,12,6,3,3,7,15,6,6,7,12,4,5,5,7,4,8,30,19,1010.txt
23,0,3,2,0,4,0,0,0,0,14,0,13,28,26,25,0,22,0,25,0,6,1,1,1,14,27,22,24,28,1,1,1,1,1,1,1,1,1,1,1,15,1,1,1,1,1,1,1,1,4,1,1,1,1013.txt
23,0,3,2,0,4,0,0,0,0,14,0,13,28,26,25,0,22,0,25,0,6,1,1,1,14,27,22,24,28,1,1,1,1,1,1,1,1,1,1,7,15,6,6,0,12,4,5,5,4,4,3,30,0,1015.txt
23,0,3,2,0,10,0,0,0,0,14,0,13,28,26,25,0,22,0,25,0,6,1,1,1,14,27,22,24,28,1,1,1,1,1,1,1,1,1,1,1,15,1,1,1,1,1,1,1,1,1,1,1,1,1018.txt
15,4,2,29,2,1,1,12,1,1,9,9,9,12,18,16,16,17,14,24,15,14,2,2,2,27,2,12,20,23,5,10,9,8,7,30,2,2,11,11,23,7,8,8,10,26,11,6,7,18,0,28,23,30,1020.txt
23,0,3,2,0,10,0,0,0,0,14,0,13,28,26,25,0,22,0,25,0,6,9,12,27,26,24,2,21,24,27,26,21,24,23,30,14,6,23,25,7,0,6,6,0,18,23,29,28,18,8,3,30,24,1022.txt
23,0,3,2,0,4,0,0,0,0,14,0,13,28,26,25,0,22,0,25,0,6,1,1,1,14,27,22,24,28,0,6,6,6,0,4,12,6,26,9,7,15,6,6,0,12,4,9,10,4,9,3,30,0,1025.txt
23,0,3,2,0,4,0,0,0,0,14,0,13,28,26,25,0,22,0,25,0,6,1,1,1,14,27,22,24,28,1,1,1,1,1,4,1,1,1,1,7,15,6,6,0,13,17,5,5,12,4,14,15,15,1027.txt
23,26,3,20,0,4,6,6,7,0,27,24,3,0,0,20,0,20,0,25,0,6,29,10,29,7,16,6,23,18,5,4,4,4,4,2,12,6,2,2,7,0,6,6,16,12,3,3,3,3,1,8,30,0,1030.txt
23,0,3,2,0,4,0,0,0,0,14,0,13,28,26,25,0,22,0,25,0,6,1,1,1,14,27,22,24,28,1,1,1,1,1,1,1,1,1,1,1,15,1,1,1,1,1,1,1,1,4,1,1,1,1036.txt
23,0,3,2,0,4,0,0,0,0,14,0,13,28,26,25,0,22,0,25,0,6,1,1,1,14,27,22,24,28,1,1,1,1,1,3,1,1,1,1,1,15,1,1,1,1,1,1,1,1,1,1,1,1,1041.txt
23,0,3,2,0,4,0,0,0,0,14,0,13,28,26,25,0,22,0,25,0,6,29,10,29,6,6,9,6,6,10,22,27,30,15,12,12,6,9,6,7,15,6,6,0,12,13,9,10,6,8,3,30,0,1043.txt
23,0,3,2,0,4,0,0,0,0,14,0,13,28,26,25,0,22,0,25,0,6,1,1,1,14,27,22,24,28,1,1,1,1,1,3,1,1,1,1,1,15,1,1,1,1,1,1,1,1,1,1,1,1,1045.txt
23,0,3,2,0,4,0,0,0,0,14,0,13,28,26,25,0,22,0,25,0,6,1,1,1,14,27,22,24,28,1,1,1,1,1,1,1,1,1,1,1,15,1,1,1,1,1,1,1,1,4,1,1,1,1046.txt
23,0,3,20,0,4,6,6,7,0,14,0,13,0,0,20,0,20,0,25,0,6,29,10,29,20,14,13,29,25,22,13,28,17,14,12,12,6,18,25,7,15,6,6,0,12,8,12,13,9,18,3,30,19,1048.txt
23,0,3,2,0,4,0,0,0,0,14,0,13,28,26,25,0,22,0,25,0,6,1,1,1,14,27,22,24,28,1,1,1,1,1,1,1,1,1,1,1,15,1,1,1,1,1,1,1,1,4,1,1,1,1051.txt
23,0,3,2,0,4,0,0,0,0,14,0,13,28,26,25,0,22,0,25,0,6,1,1,1,14,27,22,24,28,1,1,1,1,1,1,1,1,1,1,1,15,1,1,1,1,1,1,1,1,4,1,1,1,1054.txt
23,0,3,2,0,4,0,0,0,0,14,11,13,28,26,25,0,22,0,25,0,6,1,1,1,14,27,22,24,28,29,8,9,8,7,1,6,11,7,7,7,15,6,6,0,12,29,5,5,23,4,3,30,4,1057.txt
23,0,3,2,0,4,0,0,0,0,14,0,13,28,26,25,0,22,0,25,0,6,1,1,1,14,27,22,24,28,1,1,1,1,1,1,1,1,1,1,7,15,6,6,16,5,0,0,0,0,8,3,6,7,1059.txt
23,0,3,2,0,4,0,0,0,0,14,0,13,28,26,25,0,22,0,25,0,6,1,1,1,14,27,22,24,28,1,1,1,1,1,9,1,1,1,1,1,15,1,1,1,1,1,1,1,1,1,1,1,1,1060.txt
23,0,3,2,0,4,0,0,0,0,14,0,13,28,26,25,0,22,0,25,0,6,1,1,1,14,27,22,24,28,0,8,9,8,7,1,12,6,3,3,7,15,6,6,0,12,30,5,5,24,4,3,30,4,1064.txt
23,0,3,2,0,4,0,0,0,0,14,0,13,28,26,25,0,22,0,25,0,6,1,1,1,14,27,22,24,28,1,1,1,1,1,1,1,1,1,1,1,15,1,1,1,1,1,1,1,1,4,1,1,1,1069.txt
23,0,3,2,0,4,0,0,0,0,14,0,13,28,26,25,0,22,0,25,0,6,1,1,1,14,27,22,24,28,1,1,1,1,1,3,1,1,1,1,1,0,1,1,1,1,1,1,1,1,1,1,1,1,1071.txt
23,0,3,2,0,4,0,0,0,0,14,0,13,28,26,25,0,22,0,25,0,6,1,1,1,14,27,22,24,28,1,1,1,1,1,1,1,1,1,1,1,15,1,1,1,1,1,1,1,1,1,1,1,1,1073.txt
23,26,3,20,0,4,0,0,0,0,5,25,6,0,0,20,0,20,0,25,0,6,29,10,29,25,15,2,18,19,4,4,4,4,4,2,4,9,2,2,11,2,11,13,13,12,3,3,3,3,1,8,3,19,1075.txt
23,0,3,2,0,4,0,0,0,0,14,0,13,28,26,25,0,22,0,25,0,6,1,1,1,14,27,22,24,28,1,1,1,1,1,1,1,1,1,1,1,15,1,1,1,1,1,1,1,1,3,1,1,1,1076.txt
23,0,3,2,0,4,0,0,0,0,14,0,13,28,26,25,0,22,0,25,0,6,1,1,1,14,27,22,24,28,0,0,0,0,0,1,12,6,0,0,7,15,6,6,0,12,0,0,0,0,4,3,30,0,1078.txt
23,0,3,2,0,4,0,0,0,0,14,0,13,28,26,25,0,22,0,25,0,6,1,1,1,14,27,22,24,28,1,1,1,1,1,1,1,1,1,1,1,15,1,1,1,1,1,1,1,1,4,1,1,1,1080.txt
23,0,3,2,0,4,0,0,0,0,14,0,13,28,26,25,0,22,0,25,0,6,1,1,1,14,27,22,24,28,1,1,1,1,1,3,1,1,1,1,1,0,1,1,1,1,1,1,1,1,1,1,1,1,1082.txt
23,0,3,2,0,4,0,0,0,0,14,0,13,28,26,25,0,22,0,25,0,6,1,1,1,14,27,22,24,28,1,1,1,1,1,3,1,1,1,1,1,0,1,1,1,1,1,1,1,1,1,1,1,1,1084.txt
23,0,3,2,0,4,0,0,0,0,14,0,13,28,26,25,0,22,0,25,0,6,1,1,1,14,27,22,24,28,1,1,1,1,1,1,1,1,1,1,1,15,1,1,1,1,1,1,1,1,1,1,1,1,1086.txt
23,26,3,20,0,4,0,0,0,0,27,24,3,0,0,20,0,20,0,25,0,6,29,10,29,14,25,27,27,26,1,1,1,1,1,2,1,1,1,1,1,0,1,1,1,1,1,1,1,1,1,1,1,1,1088.txt
23,3,3,2,3,4,3,23,3,2,2,2,2,2,2,2,2,2,2,2,3,3,1,1,1,14,27,22,24,28,1,1,1,1,1,1,1,1,1,1,1,5,1,1,1,1,1,1,1,1,1,1,1,1,1090.txt
23,0,3,2,0,4,0,0,0,0,14,0,13,28,26,25,0,22,0,0,0,6,29,10,29,0,0,0,0,0,0,0,0,0,0,0,13,6,0,0,7,15,6,6,0,12,0,0,0,0,0,12,0,0,1093.txt
23,0,3,2,0,4,0,0,0,0,14,0,13,28,26,25,0,22,0,25,0,6,1,1,1,14,27,22,24,28,1,1,1,1,1,1,1,1,1,1,1,15,1,1,1,1,1,1,1,1,4,1,1,1,1094.txt
23,0,3,2,0,4,0,0,0,0,14,0,13,28,26,25,0,22,0,25,0,6,2,2,2,6,6,12,6,6,7,22,26,30,15,19,12,6,11,11,7,0,6,6,0,13,4,6,7,4,0,3,30,15,1096.txt
23,0,3,2,0,4,0,0,0,2,14,2,2,2,2,2,2,2,2,2,3,3,1,1,1,14,27,22,24,28,1,1,1,1,1,1,1,1,1,1,1,5,1,1,1,1,1,1,1,1,4,1,1,1,1101.txt
23,0,3,2,0,4,0,0,0,0,14,0,13,28,26,25,0,22,0,25,0,6,1,1,1,14,27,22,24,28,1,1,1,1,1,1,1,1,1,1,1,15,1,1,1,1,1,1,1,1,4,1,1,1,1105.txt
23,0,3,2,0,4,0,0,0,0,14,0,13,28,26,25,0,22,0,25,0,6,1,1,1,14,27,22,24,28,1,1,1,1,1,1,1,1,1,1,1,15,1,1,1,1,1,1,1,1,1,1,1,1,1106.txt
23,3,3,2,3,10,0,0,0,1,2,4,4,5,2,6,11,17,14,24,10,8,29,10,29,14,25,27,27,26,5,16,14,14,2,12,2,18,2,2,23,20,22,20,11,12,18,6,7,12,0,8,30,0,1108.txt
23,0,3,2,24,4,0,0,0,0,14,0,13,30,29,25,0,22,0,25,0,6,1,1,1,14,27,22,24,28,1,1,1,1,1,1,1,1,1,1,1,15,1,1,1,1,1,1,1,1,4,1,1,1,1109.txt
23,0,3,2,0,4,0,0,0,0,14,0,13,28,26,25,0,22,0,25,0,6,1,1,1,14,27,22,24,28,1,1,1,1,1,1,1,1,1,1,1,15,1,1,1,1,1,1,1,1,4,1,1,1,1114.txt
23,0,3,2,0,4,6,6,7,15,14,0,13,28,26,25,14,22,20,18,23,2,29,10,29,6,6,9,6,6,10,8,9,8,6,12,12,6,3,3,7,15,6,6,0,12,30,6,7,24,0,3,30,19,1117.txt
23,0,3,2,0,4,0,0,0,0,14,0,13,28,26,25,0,22,0,25,0,6,1,1,1,14,27,22,24,28,1,1,1,1,1,1,1,1,1,1,1,16,1,1,1,1,1,1,1,1,1,1,1,1,1118.txt
23,0,3,2,0,4,0,0,0,0,14,0,13,28,26,25,0,22,0,25,0,6,1,1,1,14,27,22,24,28,19,0,0,0,7,1,12,23,0,0,7,15,6,6,6,5,0,0,0,0,22,14,15,7,1121.txt
23,0,3,20,0,4,0,0,0,0,14,0,13,0,0,20,0,20,0,25,0,6,22,24,23,0,0,0,0,0,0,0,0,0,0,0,3,3,0,0,7,15,6,6,0,12,0,0,0,0,9,3,30,3,1122.txt
23,0,3,2,0,4,0,0,0,0,14,0,13,28,26,25,0,22,0,25,0,6,1,1,1,14,27,22,24,28,1,1,1,1,1,3,1,1,1,1,1,0,1,1,1,1,1,1,1,1,1,1,1,1,1124.txt
23,0,3,2,0,4,0,0,0,0,14,0,13,28,26,25,0,22,0,25,0,6,1,1,1,14,27,22,24,28,1,1,1,1,1,3,1,1,1,1,1,15,1,1,1,1,1,1,1,1,1,1,1,1,1126.txt
23,0,3,2,0,21,5,8,5,0,14,0,13,28,26,25,0,22,0,25,0,6,21,28,28,14,27,22,24,28,9,4,4,4,4,2,12,23,23,19,7,17,6,6,16,6,3,3,3,3,1,16,14,8,1128.txt
23,0,3,2,0,4,0,0,0,0,14,0,13,28,26,25,0,22,0,25,0,6,1,1,1,14,27,22,24,28,1,1,1,1,1,1,1,1,1,1,1,15,1,1,1,1,1,1,1,1,4,1,1,1,1130.txt
23,0,3,2,0,4,0,0,0,0,14,0,13,28,26,25,0,22,0,25,0,6,1,1,1,14,27,22,24,28,19,0,0,0,0,1,12,6,0,0,7,15,6,6,7,12,0,0,0,0,0,8,30,0,1135.txt
23,0,3,2,0,4,0,0,0,0,14,0,13,28,26,25,0,22,0,25,0,6,29,10,29,14,27,22,24,28,5,0,0,0,0,12,12,6,11,11,7,15,6,6,16,12,14,6,7,2,0,8,30,0,1136.txt
23,0,3,2,0,4,0,0,0,0,14,0,13,28,26,25,0,22,0,25,0,6,2,2,2,0,0,11,0,0,0,0,0,0,7,7,12,6,19,23,7,15,6,6,0,13,4,12,13,4,26,29,15,15,1137.txt
23,0,3,2,0,4,0,0,0,0,14,0,13,28,26,25,0,22,0,25,0,6,1,1,1,14,27,22,24,28,1,1,1,1,1,1,1,1,1,1,7,15,6,6,7,12,4,5,5,7,4,7,30,0,1139.txt
23,4,3,2,0,4,0,0,0,7,14,6,7,16,18,15,11,13,14,10,15,14,16,21,13,6,6,0,6,6,0,13,29,17,14,0,23,2,3,3,12,25,25,10,23,13,4,2,2,4,9,3,30,15,1141.txt
23,0,3,2,0,10,0,0,0,0,14,0,13,28,26,25,0,22,0,25,0,6,2,2,2,14,27,22,24,28,5,16,14,14,21,19,12,23,2,2,7,15,6,6,5,6,24,7,8,18,14,16,15,8,1143.txt
23,0,3,2,0,4,0,0,0,0,14,0,13,28,26,25,0,22,0,25,0,6,1,1,1,14,27,22,24,28,1,1,1,1,1,3,1,1,1,1,1,15,1,1,1,1,1,1,1,1,1,1,1,1,1147.txt
23,0,3,2,0,4,0,0,0,0,14,0,13,28,26,25,0,22,0,25,0,6,1,1,1,14,27,22,24,28,1,1,1,1,1,1,1,1,1,1,1,15,1,1,1,1,1,1,1,1,1,1,1,1,1149.txt
23,0,3,2,0,4,0,0,0,0,14,0,13,28,26,25,0,22,0,25,0,6,7,26,6,6,6,12,6,6,10,8,9,8,7,22,6,11,19,27,7,0,6,6,16,18,8,11,12,9,14,11,21,28,1151.txt
23,0,3,2,0,4,0,0,0,0,14,0,13,28,26,25,0,22,0,25,0,6,1,1,1,14,27,22,24,28,1,1,1,1,1,1,1,1,1,1,1,15,1,1,1,1,1,1,1,1,1,1,1,1,1152.txt
23,0,3,2,0,4,0,0,0,0,14,0,13,28,26,25,0,22,0,25,0,6,1,1,1,14,27,22,24,28,1,1,1,1,1,1,1,1,1,1,1,15,1,1,1,1,1,1,1,1,4,1,1,1,1156.txt
23,0,3,2,0,10,0,0,0,0,14,0,13,28,26,25,0,22,0,25,0,6,1,1,1,14,27,22,24,28,1,1,1,1,1,3,1,1,1,1,1,15,1,1,1,1,1,1,1,1,1,1,1,1,1158.txt
23,0,3,2,0,10,0,0,0,0,14,0,13,28,26,25,0,22,0,25,0,6,1,1,1,14,27,22,24,28,1,1,1,1,1,1,1,1,1,1,1,15,1,1,1,1,1,1,1,1,4,1,1,1,1161.txt
23,0,3,2,0,4,0,0,0,0,14,0,13,28,26,25,0,22,0,25,0,6,1,1,1,14,27,22,24,28,1,1,1,1,1,1,1,1,1,1,1,15,1,1,1,1,1,1,1,1,1,1,1,1,1166.txt
23,0,3,2,0,4,0,0,0,0,14,0,13,28,26,25,0,22,0,25,0,6,1,1,1,14,27,22,24,28,0,8,9,8,6,1,12,6,3,3,7,15,6,6,0,12,4,12,13,4,9,3,30,0,1168.txt
26,28,1,1,7,14,23,9,11,29,9,9,20,7,12,23,20,30,14,10,15,14,16,16,14,0,0,12,0,0,4,4,4,4,4,2,23,18,7,7,6,6,13,14,28,11,3,3,3,3,1,24,14,14,1169.txt
23,0,3,3,0,4,6,6,7,15,14,0,13,0,0,20,14,20,20,18,23,2,28,6,30,7,7,9,7,18,0,9,10,18,12,10,12,6,9,6,7,15,6,6,0,12,28,15,18,22,9,2,2,3,1171.txt
23,0,3,2,0,4,0,0,0,0,14,0,13,28,26,25,0,22,0,25,0,6,1,1,1,14,27,22,24,28,3,0,0,0,0,3,4,9,0,0,4,3,4,4,4,9,0,0,0,0,2,27,4,13,1175.txt
23,0,3,2,0,4,0,0,0,0,14,0,13,28,26,25,0,22,0,25,0,6,1,1,1,14,27,22,24,28,5,0,0,0,0,1,12,6,0,0,7,15,6,6,7,12,0,0,0,0,9,8,30,0,1177.txt
23,3,3,2,3,4,3,23,3,2,2,2,2,2,2,2,2,2,2,2,3,3,1,1,1,14,27,22,24,28,1,1,1,1,1,1,1,1,1,1,1,6,1,1,1,1,1,1,1,1,1,1,1,1,1179.txt
23,0,3,2,0,4,0,0,0,0,14,0,13,28,26,25,0,22,0,25,0,6,29,10,29,14,27,22,24,28,1,1,1,1,1,2,1,1,1,1,1,0,1,1,1,1,1,1,1,1,1,1,1,1,1183.txt
23,0,3,2,0,4,0,0,0,0,14,0,13,28,26,25,0,22,0,25,0,6,1,1,1,0,0,14,0,0,0,8,9,8,7,1,12,6,9,28,7,15,6,6,0,12,4,5,5,4,4,3,30,0,1184.txt
23,0,3,2,0,4,0,0,0,0,14,0,13,28,26,25,0,22,0,25,0,27,1,1,1,14,8,15,17,16,1,1,1,1,1,1,28,29,1,24,1,15,1,1,1,1,1,1,1,1,4,1,1,1,1190.txt
23,11,1,1,3,7,0,0,0,12,8,9,9,19,18,17,11,13,14,9,15,14,2,2,2,6,6,9,6,6,7,8,9,8,7,19,23,25,3,3,12,20,25,28,22,13,13,7,8,6,14,12,12,15,1192.txt
23,0,3,2,0,4,0,0,0,0,14,0,13,28,26,25,0,22,0,25,0,6,1,1,1,14,27,22,24,28,1,1,1,1,1,1,1,1,1,1,1,15,1,1,1,1,1,1,1,1,1,1,1,1,1194.txt
23,0,3,2,0,4,0,0,0,0,14,0,13,28,26,25,0,22,0,25,0,6,29,10,29,3,3,9,3,3,0,9,10,5,12,12,12,6,3,3,7,15,6,6,0,12,4,9,10,4,8,3,30,0,1196.txt
23,0,3,2,0,4,0,0,0,0,14,0,13,28,26,25,0,22,0,25,0,6,9,13,27,6,6,9,6,6,0,22,29,29,15,19,12,6,3,3,7,15,6,6,0,13,4,6,7,4,0,3,30,15,1197.txt
23,0,3,20,0,4,0,0,0,0,14,0,13,0,0,20,0,20,0,25,0,6,29,10,29,14,27,22,24,28,17,4,4,4,4,2,12,6,2,2,7,15,6,6,16,12,3,3,3,3,1,8,30,0,1199.txt
23,0,3,2,0,4,0,0,0,0,14,0,13,28,26,25,0,22,0,25,0,6,2,2,2,14,27,22,24,28,1,1,1,1,1,30,1,1,1,1,1,0,1,1,1,1,1,1,1,1,1,1,1,1,1201.txt
23,0,3,2,0,4,0,0,0,0,14,0,13,28,26,25,0,22,0,25,0,6,1,1,1,14,27,22,24,28,7,8,9,8,7,1,6,11,19,25,7,8,6,6,0,18,8,12,13,9,8,3,30,30,1203.txt
23,0,3,20,0,4,0,0,0,0,14,0,13,0,0,20,0,20,0,25,0,6,29,10,29,14,27,22,24,28,0,4,4,4,0,2,12,6,2,2,7,15,6,6,0,12,3,3,3,3,1,3,3,0,1205.txt
30,3,3,2,18,10,3,9,14,6,7,4,4,7,9,2,16,12,13,24,15,24,19,19,22,9,25,27,27,26,1,1,1,1,1,2,1,1,1,1,14,6,13,14,27,11,3,3,3,3,1,17,13,14,1207.txt
23,0,3,2,0,4,0,0,0,0,14,0,13,28,26,25,0,22,0,25,0,6,1,1,1,14,27,22,24,28,1,1,1,1,1,1,1,1,1,1,1,15,1,1,1,1,1,1,1,1,1,1,1,1,1211.txt
23,0,3,2,0,4,0,0,0,0,14,0,13,28,26,25,0,22,0,25,0,6,1,1,1,14,27,22,24,28,1,1,1,1,1,1,1,1,1,1,1,3,1,1,1,1,1,1,1,1,1,1,1,1,1214.txt
23,0,3,2,0,4,0,0,0,0,14,0,13,28,26,25,0,22,0,25,0,6,1,1,1,14,27,22,24,28,1,1,1,1,1,1,1,1,1,1,1,2,1,1,1,1,1,1,1,1,1,1,1,1,1216.txt
23,0,3,2,0,4,0,0,0,0,14,0,13,28,26,25,0,22,0,25,0,6,29,10,29,0,0,0,0,0,0,0,0,0,0,0,12,6,3,3,7,15,6,6,0,12,4,6,7,4,0,3,30,0,1217.txt
23,0,3,2,0,4,0,0,0,0,14,0,13,28,26,25,0,22,0,25,0,6,1,1,1,14,27,22,24,28,1,1,1,1,1,1,1,1,1,1,1,15,1,1,1,1,1,1,1,1,1,1,1,1,1219.txt
23,0,3,2,0,10,0,0,0,0,14,0,13,28,26,25,0,22,0,25,0,6,1,1,1,14,27,22,24,28,0,3,18,3,3,1,12,6,10,8,7,15,6,6,0,12,9,24,6,10,22,14,0,0,1221.txt
23,1,2,10,2,1,1,11,1,1,9,9,7,23,18,17,11,14,29,10,15,14,2,2,2,18,11,12,14,14,5,8,9,8,0,30,2,2,11,11,23,26,22,20,20,26,14,6,7,18,0,15,0,30,1225.txt
23,0,3,2,0,4,0,0,0,0,14,0,13,28,26,25,0,22,0,25,0,6,29,10,29,14,27,22,24,28,1,1,1,1,1,2,1,1,1,1,1,15,1,1,1,1,1,1,1,1,1,1,1,1,1228.txt
23,0,3,2,0,4,0,0,0,0,14,0,13,28,26,25,0,22,0,25,0,6,29,10,29,14,27,22,24,28,7,8,9,8,7,12,12,6,3,3,7,15,6,6,0,12,8,9,10,9,8,3,30,4,1230.txt
23,0,3,2,0,4,0,0,0,0,14,0,13,28,26,25,0,22,0,25,0,6,1,1,1,14,27,22,24,28,1,1,1,1,1,3,1,1,1,1,1,15,1,1,1,1,1,1,1,1,1,1,1,1,1234.txt
23,0,3,2,0,4,0,0,0,0,14,0,13,28,26,25,0,22,0,25,0,6,1,1,1,14,27,22,24,28,1,1,1,1,1,1,1,1,1,1,1,15,1,1,1,1,1,1,1,1,4,1,1,1,1237.txt
23,3,3,2,3,4,0,0,0,2,2,2,2,2,2,2,2,2,2,2,3,3,1,1,1,14,27,22,24,28,1,1,1,1,1,1,1,1,1,1,1,5,1,1,1,1,1,1,1,1,4,1,1,1,1239.txt
15,3,1,1,1,2,22,23,23,21,2,30,9,26,2,30,26,13,14,24,10,8,7,26,6,30,22,23,25,22,10,26,24,21,24,30,20,15,26,9,14,6,30,25,28,17,23,27,26,28,20,11,21,28,1241.txt
23,0,3,2,0,10,0,0,0,0,14,0,13,28,26,25,0,22,0,25,0,6,1,1,1,14,27,22,24,28,0,8,9,8,7,1,13,23,3,3,7,15,6,6,0,14,4,5,5,4,4,14,15,16,1243.txt
15,3,1,1,3,2,1,4,1,1,7,28,7,21,7,5,4,13,5,5,16,14,10,30,24,14,27,22,24,28,0,0,0,0,0,0,2,2,0,0,12,22,25,19,19,13,0,0,0,0,0,16,0,15,1245.txt
23,0,3,2,0,4,0,0,0,0,14,0,13,28,26,25,0,22,0,25,0,6,1,1,1,14,27,22,24,28,1,1,1,1,1,1,1,1,1,1,1,15,1,1,1,1,1,1,1,1,4,1,1,1,1249.txt
23,0,3,2,0,4,0,0,0,0,14,0,13,28,26,25,0,22,0,25,0,6,1,1,1,14,27,22,24,28,1,1,1,1,1,1,1,1,1,1,1,15,1,1,1,1,1,1,1,1,1,1,1,1,1251.txt
23,3,3,2,2,4,0,0,0,1,2,23,10,22,2,5,4,15,5,17,10,8,29,10,29,14,25,27,27,26,27,16,2,14,2,12,2,15,11,11,23,26,21,25,11,12,24,6,7,12,0,8,30,0,1254.txt
23,0,3,20,0,4,0,0,0,0,14,0,13,0,0,20,0,20,0,25,0,6,24,13,17,3,3,5,3,3,0,0,0,0,12,14,12,6,3,3,7,15,6,6,0,13,4,6,7,4,0,12,15,15,1255.txt
23,26,3,20,0,10,0,0,0,0,27,24,3,10,4,20,0,20,0,25,0,6,5,14,5,18,11,18,14,14,5,2,2,2,3,23,14,6,24,30,7,0,6,6,16,5,9,0,6,10,6,0,15,7,1267.txt
23,4,1,1,3,1,0,0,0,1,9,21,7,11,19,15,9,13,29,19,16,14,2,2,2,12,2,0,10,10,0,14,12,12,0,0,2,18,26,9,12,22,25,20,11,13,4,6,7,4,0,12,9,15,1271.txt
28,4,30,25,17,16,23,19,13,8,24,13,17,22,16,11,13,11,19,1,22,17,10,30,17,27,11,11,20,23,30,5,5,9,5,14,23,25,28,29,21,26,27,10,23,25,12,27,26,2,6,15,25,6,1274.txt
23,0,3,20,0,4,0,0,0,0,14,0,13,0,0,20,0,20,0,25,0,6,2,2,2,13,23,0,11,11,30,15,3,15,0,0,13,6,28,17,3,9,3,3,3,26,10,28,27,11,8,8,8,6,1276.txt
23,3,2,29,3,2,1,11,1,2,2,2,2,2,2,16,11,17,14,24,15,14,1,1,1,14,25,27,27,26,5,16,2,14,2,3,2,15,4,4,23,28,22,25,20,6,18,6,7,12,0,14,23,8,1278.txt
23,0,3,2,0,4,0,0,0,0,14,0,13,28,26,25,0,22,0,25,0,6,1,1,1,14,27,22,24,28,1,1,1,1,1,1,1,1,1,1,1,15,1,1,1,1,1,1,1,1,1,1,1,1,1280.txt
15,3,1,1,3,2,1,23,1,2,2,2,2,2,2,15,16,13,14,9,10,8,1,1,1,14,27,22,24,28,7,8,9,8,7,1,2,2,26,9,6,5,25,20,11,12,4,5,5,4,4,3,30,0,1283.txt
13,24,30,29,29,14,21,19,21,29,25,13,27,5,6,11,13,11,26,16,22,17,13,21,17,21,17,24,20,23,30,28,23,24,24,15,20,18,28,25,27,29,29,29,22,4,2,7,8,12,12,28,26,29,1285.txt
23,0,3,2,0,4,0,0,0,0,14,0,13,28,26,25,0,22,0,25,0,6,1,1,1,14,27,22,24,28,0,0,0,0,0,1,12,6,0,0,7,15,6,6,0,13,0,0,0,0,0,3,30,15,1287.txt
23,26,3,2,0,4,6,6,7,0,27,24,3,28,26,25,0,22,0,25,0,6,29,10,29,7,29,28,16,7,3,28,23,23,20,12,14,6,28,22,7,0,6,6,16,12,10,9,10,16,8,8,30,0,1288.txt
15,4,30,27,3,1,1,16,1,1,9,9,7,23,18,17,11,17,14,5,16,14,16,21,13,18,17,12,14,14,21,8,9,8,7,30,2,2,11,11,23,26,22,20,11,26,14,6,7,12,24,15,0,25,1290.txt
15,28,1,1,3,2,29,15,28,2,9,2,9,12,21,17,16,13,14,9,15,14,15,11,9,17,2,9,13,13,7,8,9,8,7,4,22,25,26,9,12,29,19,25,27,18,30,12,13,24,29,17,12,30,1292.txt
23,0,3,2,0,4,0,0,0,0,14,0,13,28,26,25,0,22,0,25,0,6,1,1,1,14,27,22,24,28,1,1,1,1,1,1,1,1,1,1,1,15,1,1,1,1,1,1,1,1,1,1,1,1,1295.txt
23,4,3,2,3,4,12,7,0,1,8,21,7,1,18,7,9,15,29,1,10,8,29,10,29,0,0,0,0,0,5,0,0,0,7,0,2,2,0,0,24,22,25,20,2,12,0,0,0,0,0,3,30,0,1297.txt
23,0,3,2,0,4,0,0,0,0,14,0,13,28,26,25,0,22,0,25,0,6,1,1,1,6,6,4,6,6,21,8,9,8,7,1,6,11,3,3,7,15,6,6,0,18,27,5,5,21,4,3,30,29,1300.txt
26,24,1,1,3,7,29,23,28,7,17,6,12,16,5,23,30,13,10,9,21,21,29,10,29,6,6,9,6,6,0,9,10,17,12,12,23,14,6,6,6,20,25,9,9,12,4,2,2,4,26,3,30,0,1302.txt
23,0,3,2,0,4,0,0,0,0,14,0,13,28,26,25,0,22,0,25,0,6,1,1,1,14,27,22,24,28,1,1,1,1,1,1,1,1,1,1,1,15,1,1,1,1,1,1,1,1,1,1,1,1,1303.txt
23,0,3,2,0,4,0,0,0,0,14,0,13,28,26,25,0,22,0,25,0,6,29,10,29,0,0,0,0,0,5,0,0,0,0,0,12,6,0,0,7,15,6,6,16,12,0,0,0,0,0,3,6,0,1305.txt
23,0,3,2,0,4,0,0,0,0,14,0,13,28,26,25,0,22,0,25,0,6,1,1,1,14,27,22,24,28,18,8,9,8,7,1,12,6,26,9,4,3,4,4,4,12,13,5,5,6,4,10,3,0,1307.txt
23,0,3,2,0,4,0,0,0,0,14,0,13,28,26,25,0,22,0,25,0,6,29,10,29,0,0,0,0,0,19,0,0,0,7,12,12,6,11,11,7,15,6,6,16,12,14,6,7,12,0,3,30,0,1309.txt
23,0,3,2,0,4,0,0,0,0,14,0,13,28,26,25,0,22,0,25,0,6,1,1,1,14,27,22,24,28,1,1,1,1,1,1,1,1,1,1,1,15,1,1,1,1,1,1,1,1,1,1,1,1,1311.txt
23,0,3,2,0,4,0,0,0,0,14,0,13,28,26,25,0,22,0,25,0,6,1,1,1,14,27,22,24,28,1,1,1,1,1,1,1,1,1,1,1,15,1,1,1,1,1,1,1,1,1,1,1,1,1314.txt
23,0,3,2,0,4,0,0,0,0,14,0,13,28,26,25,0,22,0,25,0,6,1,1,1,14,27,22,24,28,1,1,1,1,1,1,1,1,1,1,1,16,1,1,1,1,1,1,1,1,1,1,1,1,1315.txt
23,0,3,2,0,4,0,0,0,0,14,0,13,28,26,25,0,22,0,25,0,6,1,1,1,14,27,22,24,28,1,1,1,1,1,1,1,1,1,1,1,15,1,1,1,1,1,1,1,1,4,1,1,1,1317.txt
23,0,3,2,0,4,0,0,0,0,14,0,13,28,26,25,0,22,0,25,0,6,1,1,1,14,27,22,24,28,0,0,0,0,0,1,12,6,3,3,7,16,6,6,0,12,4,5,5,4,4,3,30,0,1318.txt
23,0,3,2,0,4,0,0,0,0,14,0,13,28,26,25,0,22,0,25,0,6,1,1,1,14,27,22,24,28,1,1,1,1,1,3,1,1,1,1,1,0,1,1,1,1,1,1,1,1,1,1,1,1,1320.txt
23,0,3,2,0,4,0,0,0,0,14,0,13,28,26,25,0,22,0,25,0,6,1,1,1,14,27,22,24,28,1,1,1,1,1,1,1,1,1,1,1,15,1,1,1,1,1,1,1,1,1,1,1,1,1323.txt
23,0,3,2,0,4,0,0,0,0,14,0,13,28,26,25,0,22,0,25,0,6,1,1,1,14,27,22,24,28,0,0,0,0,0,1,12,6,0,0,7,15,6,6,0,13,0,0,0,0,22,14,9,15,1325.txt
23,0,3,2,0,4,0,0,0,0,14,0,13,28,26,25,0,22,0,25,0,6,1,1,1,14,27,22,24,28,0,8,9,8,7,1,12,6,2,2,7,15,6,6,0,12,5,5,5,5,4,3,30,0,1327.txt
23,0,3,2,0,4,0,0,0,0,14,0,13,28,26,25,14,22,20,18,23,2,29,10,29,6,6,12,6,6,0,8,9,8,7,12,12,6,3,3,7,15,6,6,0,12,4,9,10,4,18,3,30,0,1329.txt
23,0,3,2,0,4,0,0,0,0,14,0,13,28,26,25,0,22,0,25,0,6,1,1,1,14,27,22,24,28,1,1,1,1,1,1,1,1,1,1,1,15,1,1,1,1,1,1,1,1,4,1,1,1,1331.txt
23,0,3,2,0,24,5,3,5,0,14,0,13,28,26,25,0,22,0,25,0,6,2,2,2,22,11,0,30,11,19,15,3,12,10,0,14,6,28,17,7,0,6,6,16,5,12,29,28,11,8,29,9,7,1332.txt
23,0,3,2,0,4,0,0,0,0,14,0,13,28,26,25,0,22,0,25,0,6,1,1,1,14,27,22,24,28,1,1,1,1,1,1,1,1,1,1,1,15,1,1,1,1,1,1,1,1,1,1,1,1,1335.txt
26,4,10,25,3,1,1,23,1,1,8,23,7,8,18,5,4,24,5,24,15,14,10,21,17,0,0,0,0,0,0,9,10,28,12,0,2,2,11,11,18,22,25,9,9,13,4,6,7,4,0,3,30,15,1337.txt
23,0,3,2,0,4,0,0,0,0,14,0,13,28,26,25,0,22,0,25,0,6,1,1,1,14,27,22,24,28,5,16,14,14,16,1,12,6,2,2,7,15,6,6,16,15,15,7,8,18,25,10,30,9,1339.txt
23,0,3,2,0,4,0,0,0,0,14,0,13,28,26,25,0,22,0,25,0,6,1,1,1,14,27,22,24,28,1,1,1,1,1,1,1,1,1,1,7,15,6,6,16,12,0,0,0,0,1,8,30,0,1341.txt
23,0,3,2,0,4,0,0,0,0,14,0,13,28,26,25,0,22,0,25,0,6,1,1,1,14,27,22,24,28,5,0,0,0,0,1,12,6,0,0,7,15,6,6,16,5,0,0,0,0,8,8,30,7,1344.txt
23,0,3,2,0,4,0,0,0,0,14,0,13,28,26,25,0,22,0,25,0,6,1,1,1,14,27,22,24,28,1,1,1,1,1,1,1,1,1,1,1,15,1,1,1,1,1,1,1,1,4,1,1,1,1346.txt
23,0,3,2,0,4,0,0,0,0,14,0,13,28,26,25,0,22,0,25,0,6,1,1,1,14,27,22,24,28,1,1,1,1,1,1,1,1,1,1,1,15,1,1,1,1,1,1,1,1,4,1,1,1,1348.txt
15,28,26,29,20,15,4,13,20,29,12,30,22,23,16,23,10,26,14,30,21,19,13,20,16,27,17,19,20,23,29,22,29,29,15,22,23,20,21,25,30,29,18,29,30,18,8,12,13,9,16,17,13,27,1351.txt
23,0,3,2,0,4,0,0,0,0,14,0,13,28,26,25,0,22,0,25,0,6,1,1,1,14,27,22,24,28,1,1,1,1,1,1,1,1,1,1,7,15,6,6,0,12,4,5,5,4,4,14,0,0,1352.txt
23,0,3,2,0,4,0,0,0,0,14,0,13,28,26,25,0,22,0,25,0,6,29,10,29,14,25,27,27,26,1,1,1,1,1,2,1,1,1,1,1,15,1,1,1,1,1,1,1,1,1,1,1,1,1354.txt
23,0,3,2,0,10,0,0,0,0,14,0,13,28,26,25,0,22,0,25,0,6,29,10,29,14,27,22,24,28,1,1,1,1,1,2,1,1,1,1,7,15,6,6,16,12,0,0,0,0,1,8,30,0,1356.txt
23,0,3,2,0,4,0,0,0,0,14,0,13,28,26,25,0,22,0,25,0,6,1,1,1,14,27,22,24,28,1,1,1,1,1,3,1,1,1,1,1,15,1,1,1,1,1,1,1,1,4,1,1,1,1358.txt
23,0,3,2,0,4,0,0,0,0,14,0,13,28,26,25,0,22,0,25,0,6,29,10,29,14,27,22,24,28,1,1,1,1,1,2,1,1,1,1,1,0,1,1,1,1,1,1,1,1,1,1,1,1,1360.txt
23,0,3,2,0,4,0,0,0,0,14,0,13,28,26,25,0,22,0,25,0,6,29,10,29,6,6,0,6,6,0,0,0,0,0,0,12,6,3,3,7,15,6,6,0,12,4,6,7,4,0,3,30,0,1362.txt
23,0,3,2,0,4,0,0,0,0,14,0,13,28,26,25,0,22,0,25,0,6,1,1,1,14,27,22,24,28,1,1,1,1,1,1,1,1,1,1,7,15,6,6,16,5,0,0,0,0,0,14,0,7,1364.txt
23,0,3,2,0,4,0,0,0,0,14,0,13,28,26,25,0,22,0,25,0,6,1,1,1,14,27,22,24,28,1,1,1,1,1,1,1,1,1,1,1,15,1,1,1,1,1,1,1,1,4,1,1,1,1367.txt
23,4,3,20,17,4,6,6,7,12,1,1,1,8,12,1,1,1,1,1,22,17,29,10,29,3,3,12,3,3,7,5,5,5,5,12,23,25,13,13,6,25,25,28,27,12,11,2,2,18,8,3,30,0,1368.txt
23,0,3,2,0,4,0,0,0,0,14,0,13,28,26,25,0,22,0,25,0,6,2,2,2,14,27,22,24,28,18,16,14,14,21,19,12,6,19,25,7,15,6,6,16,6,18,12,13,12,13,8,30,8,1371.txt
23,0,3,2,0,10,0,0,0,0,14,0,13,28,26,25,0,22,0,25,0,6,1,1,1,14,27,22,24,28,5,8,9,8,0,1,12,6,3,3,7,15,6,6,16,7,4,6,7,7,0,14,0,9,1372.txt
23,0,3,2,0,4,0,0,0,0,14,0,13,28,26,25,0,22,0,25,0,6,29,10,29,11,2,0,14,14,5,15,12,15,7,0,12,4,0,0,7,15,6,6,16,12,0,0,0,0,6,8,30,0,1375.txt
23,0,3,2,0,4,0,0,0,0,14,0,13,28,26,25,0,22,0,25,0,6,1,1,1,14,27,22,24,28,0,0,0,0,0,1,12,4,3,3,7,15,6,6,0,12,4,2,2,4,0,3,30,0,1377.txt
23,0,3,2,0,4,0,0,0,0,14,0,13,28,26,25,0,22,0,25,0,6,1,1,1,14,27,22,24,28,5,15,3,15,11,1,12,4,3,3,7,15,6,6,7,5,2,5,5,11,4,8,30,7,1379.txt
23,26,3,11,0,4,6,6,7,1,27,1,1,23,6,1,1,1,1,21,22,17,16,13,25,0,0,0,0,0,9,0,0,0,0,0,2,2,11,11,2,1,2,2,19,6,11,6,7,12,0,8,30,8,1380.txt
23,0,3,20,0,10,0,0,0,0,14,0,13,10,4,20,0,20,0,25,0,6,7,5,6,11,11,0,19,20,5,2,2,2,2,0,12,6,0,0,7,0,6,6,16,5,0,0,0,0,0,8,30,7,1383.txt
23,0,3,2,0,4,0,0,0,0,14,0,13,28,26,25,0,22,0,25,0,6,29,10,29,0,0,4,0,0,0,9,10,18,12,12,12,6,3,3,7,15,6,6,0,12,13,6,7,6,0,3,30,0,1389.txt
23,0,3,2,0,4,0,0,0,0,14,0,13,28,26,25,0,22,0,25,0,6,1,1,1,6,6,9,6,6,7,8,9,8,7,1,12,4,3,3,7,15,6,6,0,12,27,5,5,21,4,3,30,4,1390.txt
23,0,3,2,0,4,0,0,0,0,14,0,13,28,26,25,0,22,0,25,0,6,1,1,1,0,0,0,0,0,0,0,0,0,0,1,13,6,0,0,7,15,6,6,0,12,0,0,0,0,9,3,30,0,1392.txt
23,0,3,2,0,4,0,0,0,0,14,0,13,28,26,25,0,22,0,25,0,6,1,1,1,14,27,22,24,28,1,1,1,1,1,1,1,1,1,1,1,15,1,1,1,1,1,1,1,1,4,1,1,1,1395.txt
23,0,3,2,0,4,0,0,0,0,14,0,13,28,26,25,0,22,0,25,0,6,29,10,29,14,27,22,24,28,19,0,0,0,0,2,12,6,0,0,7,15,6,6,16,12,0,0,0,0,1,10,30,0,1396.txt
23,0,3,2,0,10,0,0,0,0,14,0,13,28,26,25,14,22,20,18,23,15,1,1,1,14,27,22,24,28,5,8,9,8,7,1,12,23,3,3,7,15,6,6,7,12,8,9,10,9,16,14,21,19,1398.txt
23,0,3,2,0,4,0,0,0,0,14,0,13,28,26,25,0,22,0,25,0,6,1,1,1,14,27,22,24,28,1,1,1,1,1,1,1,1,1,1,1,15,1,1,1,1,1,1,1,1,1,1,1,1,1400.txt
23,0,3,2,0,10,0,0,0,0,14,0,13,28,26,25,0,22,0,25,0,6,1,1,1,26,2,9,20,23,7,10,6,6,7,1,12,6,3,3,7,0,6,6,0,12,27,9,10,21,19,3,30,0,1402.txt
23,0,3,2,0,4,0,0,0,0,14,0,13,28,26,25,0,22,0,25,0,6,2,2,2,0,0,9,0,0,0,17,25,30,15,19,12,4,3,3,7,15,6,6,0,13,4,6,7,4,0,12,15,15,1405.txt
23,0,3,2,0,4,0,0,0,0,14,0,13,28,26,25,0,22,0,25,0,6,1,1,1,14,27,22,24,28,1,1,1,1,1,1,1,1,1,1,7,15,6,6,0,12,4,5,5,4,4,3,3,0,1407.txt
23,0,3,2,0,4,0,0,0,0,14,0,13,28,26,25,0,22,0,25,0,6,1,1,1,14,27,22,24,28,0,8,9,8,7,1,12,6,3,3,7,16,6,6,0,12,4,9,10,4,3,3,30,0,1409.txt
26,11,9,29,1,14,23,23,26,29,8,23,9,26,21,17,11,24,13,24,15,24,26,17,19,26,2,12,20,23,27,23,26,29,28,29,22,8,11,11,27,7,8,8,10,6,22,7,8,16,15,16,24,8,1412.txt
23,0,3,2,0,4,0,0,0,0,14,0,13,28,26,25,0,22,0,25,0,6,1,1,1,14,27,22,24,28,1,1,1,1,1,1,1,1,1,1,1,15,1,1,1,1,1,1,1,1,4,1,1,1,1416.txt
23,0,3,2,0,4,0,0,0,0,14,0,13,28,26,25,0,22,0,25,0,6,1,1,1,14,27,22,24,28,11,15,12,15,2,1,12,6,0,0,7,16,6,6,16,12,0,0,0,0,0,8,30,0,1418.txt
23,0,3,2,24,4,0,0,0,0,14,0,13,30,29,25,0,22,0,25,0,6,1,1,1,14,27,22,24,28,1,1,1,1,1,1,1,1,1,1,1,15,1,1,1,1,1,1,1,1,4,1,1,1,1421.txt
23,0,3,2,0,4,0,0,0,0,14,0,13,28,26,25,0,22,0,25,0,6,7,26,6,13,9,2,11,11,3,0,0,0,0,19,12,6,28,22,7,0,6,6,16,5,10,10,11,15,8,8,30,8,1422.txt
23,0,3,2,0,4,0,0,0,0,14,0,13,28,26,25,0,22,0,25,0,6,1,1,1,14,27,22,24,28,1,1,1,1,1,1,1,1,1,1,1,3,1,1,1,1,1,1,1,1,1,1,1,1,1425.txt
23,0,3,2,0,4,0,0,0,0,14,0,13,28,26,25,0,22,0,25,0,6,1,1,1,14,27,22,24,28,19,0,0,0,0,1,12,6,0,0,4,3,4,4,4,12,0,0,0,0,0,3,30,0,1427.txt
23,0,3,2,0,4,0,0,0,0,14,0,13,28,26,25,0,22,0,25,0,6,1,1,1,14,27,22,24,28,0,0,0,0,0,1,12,6,0,0,7,15,6,6,0,12,0,0,0,0,4,3,30,0,1429.txt
23,0,3,2,0,4,0,0,0,0,14,0,13,28,26,25,0,22,0,25,0,6,9,12,27,6,6,19,6,6,5,23,29,18,28,7,12,6,18,25,11,9,9,13,3,29,13,8,9,6,8,7,3,30,1431.txt
23,0,3,2,0,4,0,0,0,0,14,0,13,28,26,25,0,22,0,25,0,6,29,10,29,0,0,0,0,0,0,8,9,8,7,12,12,6,9,6,7,15,6,6,0,12,4,9,10,4,9,3,30,0,1433.txt
23,0,3,2,0,4,0,0,0,0,14,0,13,28,26,25,0,22,0,25,0,6,29,10,29,14,27,22,24,28,1,1,1,1,1,2,1,1,1,1,1,0,1,1,1,1,1,1,1,1,1,1,1,1,1434.txt
23,0,3,2,0,4,0,0,0,0,14,0,13,28,26,25,0,22,0,25,0,6,29,10,29,14,27,22,24,28,1,1,1,1,1,2,1,1,1,1,1,0,1,1,1,1,1,1,1,1,1,1,1,1,1436.txt
23,26,3,20,0,4,0,0,0,0,27,24,3,0,0,20,0,20,0,25,0,6,29,10,29,6,6,6,6,6,4,4,4,4,4,2,12,4,2,2,7,15,6,6,16,12,3,3,3,3,1,8,30,19,1439.txt
23,0,3,2,0,4,0,0,0,0,14,0,13,28,26,25,0,22,0,25,0,6,1,1,1,14,27,22,24,28,5,16,2,14,0,1,12,6,0,0,4,3,4,4,4,12,0,0,0,0,3,8,3,0,1441.txt
23,0,3,2,0,4,0,0,0,0,14,0,13,28,26,25,0,22,0,25,0,6,1,1,1,0,0,0,0,0,0,0,0,0,0,1,12,6,3,3,7,15,6,6,0,12,4,9,10,4,9,3,30,0,1442.txt
23,0,3,20,0,4,0,0,0,0,14,0,13,0,0,20,0,20,0,25,0,6,9,14,27,0,0,19,0,0,0,0,0,0,0,7,13,6,19,29,7,15,6,6,0,13,11,12,13,2,22,12,0,15,1444.txt
23,0,3,2,0,10,0,0,0,0,14,0,13,28,26,25,0,22,0,25,0,6,1,1,1,14,27,22,24,28,5,16,2,14,2,1,12,4,0,0,7,0,6,6,16,12,0,0,0,0,0,8,30,0,1446.txt
23,0,3,2,0,4,0,0,0,0,14,0,13,28,26,25,0,22,0,25,0,6,29,10,29,13,2,0,9,9,5,15,3,15,0,0,12,6,11,11,7,15,6,6,16,12,12,26,25,2,0,8,30,0,1448.txt
23,0,3,2,0,4,0,0,0,0,14,0,13,28,26,25,0,22,0,25,0,6,1,1,1,14,27,22,24,28,1,1,1,1,1,1,1,1,1,1,1,15,1,1,1,1,1,1,1,1,4,1,1,1,1451.txt
23,0,3,2,0,4,0,0,0,0,14,0,13,28,26,25,0,22,0,25,0,6,1,1,1,14,27,22,24,28,1,1,1,1,1,1,1,1,1,1,1,15,1,1,1,1,1,1,1,1,4,1,1,1,1453.txt
23,0,3,2,0,4,0,0,0,0,14,0,13,28,26,25,0,22,0,25,0,6,2,2,2,14,27,22,24,28,5,16,14,14,21,19,12,23,11,11,7,15,6,6,16,15,14,7,8,18,23,16,0,9,1454.txt
23,4,3,20,10,4,29,23,28,7,8,6,7,1,1,5,4,13,5,1,10,8,29,10,29,0,0,0,0,0,0,0,0,0,0,0,23,2,0,0,2,1,2,2,2,12,0,0,0,0,9,3,30,0,1456.txt
23,0,3,2,0,10,0,0,0,0,14,0,13,28,26,25,0,22,0,25,0,6,1,1,1,14,27,22,24,28,9,8,6,6,7,1,12,6,2,2,7,15,6,6,7,12,8,2,2,9,11,3,30,19,1458.txt
23,0,3,2,0,4,0,0,0,0,14,0,13,28,26,25,0,22,0,25,0,6,2,2,2,12,2,13,10,10,0,8,9,8,7,7,13,6,26,9,3,2,3,3,18,13,11,12,13,12,22,3,8,15,1460.txt
23,0,3,2,0,4,0,0,0,0,14,0,13,28,26,25,0,22,0,25,0,6,1,1,1,14,27,22,24,28,5,15,3,15,2,1,12,6,0,0,7,15,6,6,7,12,0,0,0,0,8,8,30,0,1462.txt
23,0,3,2,0,4,0,0,0,0,14,0,13,28,26,25,0,22,0,25,0,6,1,1,1,14,27,22,24,28,1,1,1,1,1,1,1,1,1,1,1,3,1,1,1,1,1,1,1,1,4,1,1,1,1465.txt
23,0,3,2,0,4,0,0,0,0,14,0,13,28,26,25,0,22,0,25,0,6,1,1,1,14,27,22,24,28,1,1,1,1,1,1,1,1,1,1,1,15,1,1,1,1,1,1,1,1,1,1,1,1,1467.txt
23,0,3,2,0,4,0,0,0,0,14,0,13,28,26,25,0,22,0,25,0,6,1,1,1,14,27,22,24,28,1,1,1,1,1,3,1,1,1,1,1,15,1,1,1,1,1,1,1,1,1,1,1,1,1469.txt
23,11,2,29,7,14,23,28,26,22,8,23,7,26,6,16,11,24,14,5,14,12,2,2,2,6,6,28,6,6,18,16,14,14,21,27,20,19,11,11,14,6,12,22,11,15,25,7,8,28,25,16,23,9,1470.txt
23,4,1,1,3,1,0,0,0,1,12,21,16,1,20,5,4,13,5,1,16,23,24,30,14,0,0,9,0,0,0,0,0,0,0,14,2,2,3,3,2,1,2,2,11,13,4,6,7,4,0,3,30,15,1473.txt
23,0,3,2,0,4,0,0,0,0,14,0,13,28,26,25,0,22,0,25,0,6,1,1,1,14,27,22,24,28,1,1,1,1,1,1,1,1,1,1,1,15,1,1,1,1,1,1,1,1,4,1,1,1,1475.txt
23,0,3,2,0,4,0,0,0,0,14,0,13,28,26,25,0,22,0,25,0,6,1,1,1,14,27,22,24,28,5,15,12,15,2,3,0,6,0,0,7,0,6,6,16,12,0,0,0,0,0,8,30,0,1477.txt
23,0,3,2,0,4,0,0,0,0,14,0,13,28,26,25,0,22,0,25,0,6,9,12,27,6,6,9,6,6,7,22,29,18,15,19,12,6,18,25,7,15,6,6,0,13,4,2,2,4,9,3,30,15,1480.txt
23,3,2,10,3,2,0,0,30,2,2,2,2,2,2,2,2,2,2,2,3,3,1,1,1,14,27,22,24,28,1,1,1,1,1,1,1,1,1,1,1,6,1,1,1,1,1,1,1,1,1,1,1,1,1482.txt
23,0,3,2,0,4,0,0,0,0,14,0,13,28,26,25,0,22,0,25,0,6,1,1,1,6,6,4,6,6,0,8,9,8,7,1,12,6,3,3,7,15,6,6,0,12,4,5,5,4,4,3,30,0,1484.txt
23,0,3,2,0,4,6,6,7,0,14,0,13,28,26,25,0,22,0,25,0,6,29,10,29,7,29,9,16,18,7,9,10,18,12,12,12,6,15,15,7,15,6,6,0,12,13,2,2,6,9,3,30,0,1487.txt
23,0,3,2,0,4,0,0,0,0,14,0,13,28,26,25,0,22,0,25,0,6,29,10,29,14,27,22,24,28,3,0,0,0,4,2,12,6,11,11,7,0,6,6,5,12,3,3,3,3,1,8,30,0,1490.txt
23,0,3,2,0,4,0,0,0,0,14,0,13,28,26,25,0,22,0,25,0,6,1,1,1,14,27,22,24,28,0,0,0,0,0,1,12,7,0,0,7,16,6,6,0,12,0,0,0,0,4,3,30,0,1491.txt
26,28,2,29,3,14,23,23,26,7,24,13,17,8,21,11,13,11,19,24,22,17,29,10,29,19,2,12,15,15,10,5,5,28,5,12,16,25,19,25,30,28,25,26,21,12,11,9,10,12,12,11,21,0,1494.txt
15,3,2,29,3,2,1,4,1,2,2,2,7,23,2,10,9,15,29,5,14,14,4,4,9,9,4,3,4,16,0,16,14,14,2,3,2,2,11,11,12,20,25,20,11,13,11,6,7,18,24,3,30,15,1497.txt
23,0,3,2,0,4,0,0,0,0,14,0,13,28,26,25,0,22,0,25,0,6,1,1,1,14,27,22,24,28,1,1,1,1,1,1,1,1,1,1,1,15,1,1,1,1,1,1,1,1,4,1,1,1,1499.txt
23,0,3,2,0,4,0,0,0,0,14,0,13,28,26,25,0,22,0,25,0,6,29,10,29,14,27,22,24,28,1,1,1,1,1,2,1,1,1,1,1,15,1,1,1,1,1,1,1,1,1,1,1,1,1502.txt
23,0,3,2,0,4,6,6,7,0,14,0,13,28,26,25,0,22,0,25,0,6,29,10,29,7,13,12,16,18,7,22,29,18,15,12,12,6,3,3,7,16,6,6,0,12,13,6,7,6,0,3,30,0,1504.txt
23,0,3,20,0,21,5,3,5,0,14,0,13,10,4,20,0,20,0,25,0,6,16,18,21,18,17,29,14,14,5,16,14,14,2,27,12,6,11,11,7,15,6,6,16,7,16,6,7,28,0,21,23,9,1505.txt
23,0,3,2,0,10,0,0,0,0,14,0,13,28,26,25,0,22,0,25,0,6,1,1,1,14,27,22,24,28,1,1,1,1,1,3,1,1,1,1,1,16,1,1,1,1,1,1,1,1,1,1,1,1,1507.txt
23,3,3,2,3,4,0,0,0,2,2,2,2,2,2,10,11,13,9,19,10,8,1,1,1,14,27,22,24,28,0,8,9,8,7,1,21,28,26,9,12,5,25,20,23,12,4,5,5,4,4,14,21,0,1509.txt
23,0,3,2,0,4,0,0,0,0,14,0,13,28,26,25,0,22,0,25,0,6,7,26,6,12,17,5,10,10,19,15,12,15,0,6,12,23,24,30,7,15,6,6,6,15,9,0,6,10,21,21,0,9,1511.txt
23,0,3,2,0,4,0,0,0,0,14,0,13,28,26,25,0,22,0,25,0,6,29,10,29,0,0,11,0,0,0,13,15,29,14,12,12,6,19,22,7,15,6,6,0,12,4,9,10,4,22,3,30,0,1513.txt
23,0,3,2,0,4,0,0,0,0,14,0,13,28,26,25,0,22,0,25,0,6,29,10,29,12,9,9,10,10,0,15,12,15,7,12,12,4,3,3,7,15,6,6,0,12,4,6,7,4,0,3,30,0,1515.txt
23,0,3,2,0,4,0,0,0,0,14,0,13,28,26,25,0,22,0,25,0,6,1,1,1,14,27,22,24,28,1,1,1,1,1,1,1,1,1,1,1,15,1,1,1,1,1,1,1,1,4,1,1,1,1518.txt
23,0,3,20,0,4,0,0,0,0,14,0,13,10,4,20,0,20,0,25,0,6,9,21,27,16,17,16,12,12,5,20,14,19,11,19,12,6,11,11,7,0,6,6,16,5,14,7,8,18,8,16,23,7,1519.txt
23,0,3,2,0,4,0,0,0,0,14,0,13,28,26,25,0,22,0,25,0,6,1,1,1,14,27,22,24,28,0,0,0,0,0,1,12,6,0,0,7,15,6,6,0,12,0,0,0,0,0,3,30,0,1521.txt
23,0,3,2,0,4,0,0,0,0,14,0,13,28,26,25,0,22,0,25,0,6,1,1,1,14,27,22,24,28,1,1,1,1,1,1,1,1,1,1,1,15,1,1,1,1,1,1,1,1,4,1,1,1,1523.txt
23,0,3,2,0,4,0,0,0,0,14,0,13,28,26,25,0,22,0,25,0,6,1,1,1,14,27,22,24,28,5,0,0,0,0,1,12,6,0,0,7,15,6,6,16,5,0,0,0,0,8,8,30,7,1526.txt
23,0,3,2,0,10,0,0,0,0,14,0,13,28,26,25,0,22,0,25,0,6,1,1,1,14,27,22,24,28,5,14,12,15,7,1,12,6,11,11,7,15,6,6,16,5,15,6,7,18,0,14,0,7,1528.txt
15,4,1,1,3,14,4,23,14,29,8,28,9,23,6,17,11,13,14,15,21,19,19,7,7,18,2,12,14,14,15,22,26,29,15,15,16,25,3,3,23,28,19,26,20,26,27,12,13,21,25,17,22,30,1529.txt
23,0,3,2,0,4,0,0,0,0,14,0,13,28,26,25,0,22,0,25,0,6,29,10,29,6,6,9,6,6,0,0,0,0,12,12,12,6,3,3,7,15,6,6,0,12,4,2,2,4,0,3,30,0,1532.txt
23,0,3,2,0,10,0,0,0,0,14,0,13,28,26,25,0,22,0,25,0,6,1,1,1,14,27,22,24,28,5,4,4,4,4,1,12,23,11,11,7,15,6,6,16,6,3,6,7,3,1,14,23,8,1534.txt
15,4,2,10,3,1,1,12,1,1,9,23,7,23,18,15,11,14,14,1,15,14,2,2,2,12,2,16,10,10,5,15,12,15,3,16,2,2,11,11,23,22,12,19,2,7,14,6,7,18,0,21,9,9,1536.txt
23,0,3,2,0,4,0,0,0,0,14,0,13,28,26,25,0,22,0,25,0,6,29,10,29,0,0,0,0,0,5,0,0,0,0,0,12,6,0,0,7,16,6,6,16,12,0,0,0,0,0,3,30,0,1538.txt
23,0,3,2,0,4,0,0,0,0,14,0,13,28,26,25,0,22,0,25,0,6,1,1,1,14,21,22,24,21,1,1,1,1,1,3,1,1,1,1,1,15,1,1,1,1,1,1,1,1,1,1,1,1,1540.txt
23,0,3,2,0,4,0,0,0,0,14,0,13,28,26,25,0,22,0,25,0,6,1,1,1,14,27,22,24,28,1,1,1,1,1,1,1,1,1,1,1,15,1,1,1,1,1,1,1,1,4,1,1,1,1543.txt
23,0,3,2,0,4,0,0,0,0,14,0,13,28,26,25,0,22,0,25,0,6,1,1,1,14,27,22,24,28,1,1,1,1,1,1,1,1,1,1,1,15,1,1,1,1,1,1,1,1,23,1,1,1,1545.txt
15,4,1,1,10,7,29,23,28,7,8,6,7,1,19,7,11,13,9,1,10,8,29,10,29,6,6,9,6,6,0,8,9,8,7,12,23,14,3,3,12,22,25,10,25,12,4,9,10,4,8,3,30,19,1546.txt
23,0,3,2,0,4,0,0,0,0,14,0,13,28,26,25,0,22,0,25,0,6,5,5,5,22,17,0,11,11,19,0,0,0,0,0,12,6,0,0,3,9,3,3,3,26,0,25,0,0,22,8,30,6,1548.txt
23,0,3,2,0,10,0,0,0,0,14,0,13,28,26,25,0,22,0,25,0,6,1,1,1,14,27,22,24,28,7,8,9,8,7,1,12,6,3,3,7,15,6,6,0,13,5,5,5,5,4,14,15,15,1551.txt
23,0,3,2,0,4,0,0,0,0,14,0,13,28,26,25,0,22,0,25,0,6,1,1,1,14,27,22,24,28,1,1,1,1,1,1,1,1,1,1,7,15,6,6,0,12,0,0,0,0,4,3,6,0,1552.txt
23,0,3,2,0,4,0,0,0,0,14,0,13,28,26,25,0,22,0,25,0,6,1,1,1,14,27,22,24,28,1,1,1,1,1,1,1,1,1,1,1,15,1,1,1,1,1,1,1,1,1,1,1,1,1556.txt
23,0,3,2,0,10,0,0,0,0,14,0,13,28,26,25,0,22,0,25,0,6,1,1,1,14,27,22,24,28,1,1,1,1,1,3,1,1,1,1,1,15,1,1,1,1,1,1,1,1,1,1,1,1,1558.txt
23,0,3,20,0,4,0,0,0,0,14,0,13,0,0,20,0,20,0,25,0,6,29,10,29,0,0,0,0,0,5,0,0,0,0,0,13,6,0,0,7,0,6,6,16,12,0,0,0,0,0,8,6,0,1561.txt
23,0,3,2,0,4,0,0,0,0,14,0,13,28,26,25,0,22,0,25,0,6,1,1,1,14,21,22,24,21,1,1,1,1,1,1,1,1,1,1,1,15,1,1,1,1,1,1,1,1,4,1,1,1,1563.txt
23,0,3,2,0,4,0,0,0,0,14,0,13,28,26,25,0,22,0,25,0,6,1,1,1,14,27,22,24,28,1,1,1,1,1,3,1,1,1,1,1,0,1,1,1,1,1,1,1,1,1,1,1,1,1565.txt
23,0,3,2,0,4,0,0,0,0,14,0,13,28,26,25,0,22,0,25,0,6,1,1,1,14,27,22,24,28,1,1,1,1,1,1,1,1,1,1,1,15,1,1,1,1,1,1,1,1,4,1,1,1,1567.txt
23,0,3,2,0,4,0,0,0,0,14,0,13,28,26,25,0,22,0,25,0,6,1,1,1,0,0,0,0,0,0,0,0,0,6,1,3,3,3,3,25,15,14,0,0,9,4,5,5,4,4,2,2,12,1570.txt
23,0,3,2,0,4,0,0,0,0,14,0,13,28,26,25,0,22,0,25,0,6,2,2,2,0,0,0,0,0,19,0,0,0,0,0,12,23,0,0,7,15,6,6,16,5,0,0,0,0,22,29,15,7,1572.txt
23,0,3,2,0,4,0,0,0,0,14,0,13,28,26,25,0,22,0,25,0,6,29,10,29,12,11,0,10,10,5,10,6,6,7,0,12,6,0,0,3,9,3,3,3,12,0,0,0,0,3,8,30,0,1574.txt
23,0,3,2,0,4,0,0,0,0,14,0,13,28,26,25,0,22,0,25,0,6,1,1,1,14,27,22,24,28,0,0,0,0,0,1,12,6,3,3,7,15,6,6,0,12,4,5,5,4,4,3,30,0,1581.txt
23,0,3,2,0,4,0,0,0,0,14,0,13,28,26,25,0,22,0,25,0,6,1,1,1,14,27,22,24,28,9,8,9,8,7,1,12,6,2,2,7,15,6,6,7,12,4,5,5,8,4,8,30,0,1583.txt
23,0,3,20,0,4,0,0,0,0,14,0,13,0,0,20,0,20,0,25,0,6,9,21,27,18,17,5,14,14,21,17,29,30,0,23,12,23,24,30,7,15,6,6,16,26,9,0,6,10,0,15,0,25,1585.txt
23,0,3,2,0,4,0,0,0,0,14,0,13,28,26,25,0,22,0,25,0,6,29,10,29,0,0,0,0,0,0,0,0,0,0,0,12,6,0,0,7,15,6,6,0,12,0,0,0,0,0,3,30,0,1587.txt
23,0,3,2,0,4,0,0,0,0,14,0,13,28,26,25,0,22,0,25,0,6,29,10,29,0,0,0,0,0,0,0,0,0,0,0,12,6,0,0,7,15,6,6,0,12,0,0,0,0,8,3,30,0,1589.txt
23,0,3,2,0,4,0,0,0,0,14,0,13,28,26,25,0,22,0,25,0,6,1,1,1,14,27,22,24,28,1,1,1,1,1,3,1,1,1,1,1,15,1,1,1,1,1,1,1,1,1,1,1,1,1590.txt
23,0,3,2,0,4,0,0,0,0,14,0,13,28,26,25,0,22,0,25,0,6,29,10,29,0,0,9,0,0,0,13,13,18,0,12,12,6,3,3,7,15,6,6,0,12,4,9,10,4,9,3,30,0,1594.txt
23,0,3,2,0,4,0,0,0,0,14,0,13,28,26,25,0,22,0,25,0,6,1,1,1,14,27,22,24,28,1,1,1,1,1,9,1,1,1,1,1,15,1,1,1,1,1,1,1,1,1,1,1,1,1596.txt
23,0,3,2,0,4,0,0,0,0,14,0,13,28,26,25,0,22,0,25,0,6,1,1,1,14,27,22,24,28,1,1,1,1,1,1,1,1,1,1,1,15,1,1,1,1,1,1,1,1,1,1,1,1,1598.txt
23,0,3,2,0,4,0,0,0,0,14,0,13,28,26,25,0,22,0,25,0,6,1,1,1,14,27,22,24,28,1,1,1,1,1,1,1,1,1,1,1,15,1,1,1,1,1,1,1,1,4,1,1,1,1600.txt
23,0,3,2,0,4,0,0,0,0,14,0,13,28,26,25,0,22,0,25,0,6,5,5,5,0,0,0,0,0,5,0,0,0,0,0,12,6,0,0,7,15,6,6,16,7,0,0,0,0,0,8,30,9,1602.txt
23,0,3,2,0,4,0,0,0,0,14,0,13,28,26,25,0,22,0,25,0,6,1,1,1,14,27,22,24,28,1,1,1,1,1,1,1,1,1,1,1,15,1,1,1,1,1,1,1,1,1,1,1,1,1604.txt
23,0,3,2,0,4,0,0,0,0,14,0,13,28,26,25,0,22,0,25,0,6,29,10,29,6,6,12,6,6,0,0,0,0,7,12,12,6,11,11,7,15,6,6,0,12,4,6,7,4,0,3,30,0,1605.txt
23,0,3,2,0,4,6,6,7,0,14,0,13,28,26,25,0,22,0,25,0,6,29,10,29,26,9,12,20,23,10,15,12,15,7,12,12,6,11,11,7,15,6,6,16,12,14,6,7,12,0,8,30,0,1608.txt
23,0,3,2,0,4,0,0,0,0,14,0,13,28,26,25,0,22,0,25,0,6,1,1,1,14,27,22,24,28,0,0,0,0,0,1,12,6,3,3,7,15,6,6,0,12,4,5,5,4,4,3,30,0,1610.txt
23,0,3,2,0,4,0,0,0,0,14,0,13,28,26,25,0,22,0,25,0,6,9,5,27,0,0,0,0,0,0,0,0,0,0,0,13,23,0,0,7,0,6,6,0,26,0,0,0,0,30,15,0,6,1612.txt
23,0,3,2,0,4,0,0,0,0,14,0,13,28,26,25,0,22,0,25,0,6,1,1,1,14,27,22,24,28,1,1,1,1,1,3,1,1,1,1,1,15,1,1,1,1,1,1,1,1,1,1,1,1,1615.txt
23,0,3,2,0,4,0,0,0,0,14,0,13,28,26,25,0,22,0,25,0,6,29,10,29,14,27,22,24,28,19,15,12,15,0,0,12,4,0,0,7,0,6,6,16,12,0,0,0,0,0,3,30,0,1616.txt
23,0,3,2,0,4,0,0,0,0,14,0,13,28,26,25,0,22,0,25,0,6,1,1,1,14,27,22,24,28,1,1,1,1,1,1,1,1,1,1,7,15,6,6,7,12,11,5,5,11,4,3,30,0,1618.txt
23,0,3,2,0,4,0,0,0,0,14,0,13,28,26,25,0,22,0,25,0,6,2,2,2,6,6,12,6,6,5,23,27,18,28,15,12,6,3,3,7,15,6,6,16,30,10,10,11,18,8,8,30,25,1622.txt
23,0,3,2,0,4,0,0,0,0,14,0,13,28,26,25,0,22,0,25,0,6,1,1,1,14,21,22,24,21,19,0,0,0,0,1,12,6,0,0,7,0,6,6,16,12,0,0,0,0,0,8,30,0,1623.txt
23,0,3,2,0,4,0,0,0,0,14,0,13,28,26,25,0,22,0,25,0,6,1,1,1,14,27,22,24,28,1,1,1,1,1,1,1,1,1,1,1,15,1,1,1,1,1,1,1,1,1,1,1,1,1626.txt
23,0,3,2,0,4,0,0,0,0,14,0,13,28,26,25,0,22,0,0,0,6,29,10,29,0,0,0,0,0,0,0,0,0,0,0,13,6,0,0,7,0,6,6,0,12,0,0,0,0,0,3,6,0,1629.txt
23,0,3,2,0,4,0,0,0,0,14,0,13,28,26,25,0,22,0,25,0,6,1,1,1,14,27,22,24,28,0,0,0,0,0,1,12,6,0,0,7,15,6,6,0,12,0,0,0,0,4,3,30,0,1631.txt
23,0,3,2,0,4,0,0,0,0,14,0,13,28,26,25,0,22,0,25,0,6,2,2,2,14,27,22,24,28,0,4,4,4,4,13,12,6,2,2,7,0,6,6,0,13,3,10,11,3,1,3,30,15,1632.txt
23,0,3,20,0,4,0,0,0,0,14,0,13,0,0,20,0,20,0,25,0,6,29,10,29,0,0,0,0,0,5,0,0,0,0,0,12,6,0,0,7,15,6,6,16,12,0,0,0,0,0,8,30,0,1637.txt
23,0,3,2,0,4,0,0,0,0,14,0,13,28,26,25,0,22,0,25,0,6,2,2,2,0,0,9,0,0,0,0,0,0,28,7,12,6,3,3,7,15,6,6,0,13,4,11,12,4,22,3,30,15,1639.txt
23,3,3,2,3,10,0,0,0,2,2,2,2,2,2,2,4,14,5,10,4,4,1,1,1,14,27,22,24,28,1,1,1,1,1,1,1,1,1,1,2,1,2,2,23,12,0,0,0,0,1,8,30,0,1641.txt
23,0,3,2,0,4,0,0,0,0,14,0,13,28,26,25,0,22,0,25,0,6,1,1,1,0,0,0,0,0,0,0,0,0,0,1,12,6,0,0,7,15,6,6,0,12,0,25,0,0,4,3,30,0,1643.txt
23,0,3,2,0,4,0,0,0,0,14,0,13,28,26,25,0,22,0,25,0,6,29,10,29,0,0,0,0,0,19,0,0,0,0,0,12,6,0,0,7,15,6,6,16,12,0,0,0,0,0,8,30,0,1645.txt
23,0,3,2,0,4,0,0,0,0,14,0,13,28,26,25,0,22,0,25,0,6,29,10,29,0,0,0,0,0,0,0,0,0,0,0,13,6,0,0,7,15,6,6,0,12,0,0,0,0,9,3,30,0,1647.txt
23,0,3,2,0,4,0,0,0,0,14,0,13,28,26,25,0,22,0,25,0,6,2,2,2,14,27,22,24,28,5,16,14,14,11,13,14,6,28,25,7,0,6,6,16,5,14,10,11,28,8,3,30,7,1650.txt
23,0,3,2,0,4,0,0,0,0,14,0,13,28,26,25,0,22,0,25,0,6,1,1,1,14,27,22,24,28,5,8,9,8,0,1,12,6,3,3,7,15,6,6,6,12,4,9,10,7,8,8,30,0,1652.txt
23,0,3,2,0,4,0,0,0,0,14,0,13,28,26,25,0,22,0,25,0,6,1,1,1,14,27,22,24,28,1,1,1,1,1,1,1,1,1,1,1,15,1,1,1,1,1,1,1,1,1,1,1,1,1654.txt
23,0,3,2,0,4,0,0,0,0,14,0,13,28,26,25,0,22,0,25,0,6,1,1,1,14,27,22,24,28,0,0,0,0,0,1,12,6,0,0,7,15,6,6,0,12,0,0,0,0,0,3,30,0,1655.txt
23,0,3,2,0,4,0,0,0,0,14,0,13,28,26,25,0,22,0,25,0,6,29,10,29,6,6,19,6,6,0,8,9,8,7,12,12,6,6,10,7,15,6,6,0,12,13,6,7,6,0,3,30,0,1657.txt
23,0,3,2,0,4,0,0,0,0,14,0,13,28,26,25,0,22,0,25,0,6,1,1,1,14,27,22,24,28,1,1,1,1,1,1,1,1,1,1,1,16,1,1,1,1,1,1,1,1,1,1,1,1,1660.txt
23,0,3,2,0,4,0,0,0,0,14,0,13,28,26,25,0,22,0,25,0,6,9,12,27,6,6,12,6,6,21,8,9,8,7,30,12,6,19,25,7,15,6,6,16,18,2,10,11,12,28,8,30,29,1662.txt
23,0,3,2,0,4,0,0,0,0,14,0,13,28,26,25,0,22,0,25,0,6,29,10,29,0,0,0,0,0,0,0,0,0,7,0,12,6,0,0,7,15,6,6,0,12,0,0,0,0,8,3,30,0,1663.txt
23,0,3,2,0,4,0,0,0,0,14,0,13,28,26,25,0,22,0,25,0,6,1,1,1,14,27,22,24,28,0,0,0,0,0,1,12,7,0,0,7,15,6,6,0,12,0,0,0,0,0,3,30,0,1666.txt
23,0,3,2,0,4,0,0,0,0,14,0,13,28,26,25,0,22,0,25,0,6,1,1,1,14,27,22,24,28,1,1,1,1,1,1,1,1,1,1,1,15,1,1,1,1,1,1,1,1,4,1,1,1,1667.txt
23,0,3,2,0,4,0,0,0,0,14,0,13,28,26,25,0,22,0,25,0,6,1,1,1,14,27,22,24,28,1,1,1,1,1,1,1,1,1,1,1,15,1,1,1,1,1,1,1,1,4,1,1,1,1669.txt
23,0,3,2,0,4,0,0,0,0,14,0,13,28,26,25,0,22,0,25,0,6,1,1,1,14,27,22,24,28,1,1,1,1,1,3,1,1,1,1,1,15,1,1,1,1,1,1,1,1,1,1,1,1,1671.txt
23,0,3,2,0,4,0,0,0,0,14,0,13,28,26,25,0,22,0,25,0,6,1,1,1,14,27,22,24,28,0,0,0,0,0,1,12,6,0,0,7,15,6,6,0,12,0,0,0,0,9,3,30,0,1673.txt
23,0,3,2,0,4,0,0,0,0,14,0,13,28,26,25,0,22,0,25,0,6,1,1,1,14,27,22,24,28,5,16,2,14,0,1,12,6,3,3,7,15,6,6,16,12,15,9,10,19,8,8,30,0,1676.txt
23,0,3,2,0,4,0,0,0,0,14,0,13,28,26,25,0,22,0,25,0,6,1,1,1,14,27,22,24,28,1,1,1,1,1,1,1,1,1,1,1,15,1,1,1,1,1,1,1,1,4,1,1,1,1677.txt
23,0,3,20,0,4,0,0,0,0,14,0,13,0,0,20,0,20,0,25,0,6,29,10,29,0,0,11,0,0,5,0,0,0,0,12,13,6,19,17,7,15,6,6,16,12,12,10,11,11,8,8,30,0,1680.txt
26,4,2,10,3,1,1,23,1,1,8,23,7,8,12,5,4,14,5,5,10,8,29,10,29,0,0,12,0,0,10,22,13,18,15,12,2,14,11,11,6,27,25,10,11,12,4,6,7,4,0,3,30,0,1682.txt
23,0,3,2,0,4,0,0,0,0,14,0,13,28,26,25,0,22,0,25,0,6,1,1,1,0,0,0,0,0,0,0,0,0,0,1,12,6,0,0,7,15,6,6,0,12,0,0,0,0,4,3,30,0,1684.txt
23,0,3,2,0,4,0,0,0,0,14,0,13,28,26,25,0,22,0,25,0,6,1,1,1,14,27,22,24,28,1,1,1,1,1,1,1,1,1,1,1,15,1,1,1,1,1,1,1,1,4,1,1,1,1686.txt
23,0,3,2,0,4,0,0,0,0,14,0,13,28,26,25,0,22,0,25,0,6,29,10,29,14,27,22,24,28,3,4,4,4,0,2,12,6,2,2,7,15,6,6,16,12,3,3,3,3,1,8,3,0,1692.txt
23,0,3,2,0,4,0,0,0,0,14,0,13,28,26,25,0,22,0,0,0,6,1,1,1,14,27,22,24,28,1,1,1,1,1,1,1,1,1,1,1,15,1,1,1,1,1,1,1,1,1,1,1,1,1694.txt
23,0,3,2,0,4,0,0,0,0,14,0,13,28,26,25,0,22,0,25,0,6,1,1,1,14,27,22,24,28,1,1,1,1,1,1,1,1,1,1,1,15,1,1,1,1,1,1,1,1,1,1,1,1,1696.txt
23,0,3,2,0,4,0,0,0,0,14,0,13,28,26,25,0,22,0,25,0,6,1,1,1,14,27,22,24,28,1,1,1,1,1,1,1,1,1,1,1,15,1,1,1,1,1,1,1,1,1,1,1,1,1698.txt
23,0,3,2,0,4,0,0,0,0,14,0,13,28,26,25,0,22,0,25,0,6,1,1,1,14,27,22,24,28,1,1,1,1,1,1,1,1,1,1,1,15,1,1,1,1,1,1,1,1,1,1,1,1,1699.txt
23,0,3,2,0,4,0,0,0,0,14,0,13,28,26,25,0,22,0,25,0,6,1,1,1,14,27,22,24,28,0,0,0,0,0,1,12,6,0,0,7,15,6,6,0,12,0,0,0,0,4,3,30,0,1701.txt
23,0,3,2,0,4,0,0,0,0,14,0,13,28,26,25,0,22,0,25,0,6,1,1,1,14,27,22,24,28,0,0,0,0,0,1,12,6,0,0,7,15,6,6,0,13,0,0,0,0,4,14,9,15,1705.txt
23,0,3,2,0,4,0,0,0,0,14,0,13,28,26,25,0,22,0,25,0,6,1,1,1,14,27,22,24,28,0,0,0,0,0,1,12,6,0,0,7,15,6,6,0,12,0,0,0,0,4,3,8,0,1707.txt
23,0,3,2,0,4,0,0,0,0,14,0,13,28,26,25,0,22,0,25,0,6,1,1,1,14,27,22,24,28,1,1,1,1,1,3,1,1,1,1,1,15,1,1,1,1,1,1,1,1,1,1,1,1,1709.txt
23,0,3,2,0,4,0,0,0,0,14,0,13,28,26,25,0,22,0,25,0,6,1,1,1,14,27,22,24,28,1,1,1,1,1,1,1,1,1,1,1,3,1,1,1,1,1,1,1,1,1,1,1,1,1715.txt
23,26,3,20,0,4,0,0,0,0,27,24,3,0,0,20,0,20,0,25,0,6,29,10,29,0,0,11,0,0,0,0,0,0,14,12,12,6,11,11,7,15,6,6,0,12,4,6,7,4,0,3,30,0,1717.txt
23,0,3,2,0,4,0,0,0,0,14,0,13,28,26,25,0,22,0,25,0,6,1,1,1,14,27,22,24,28,1,1,1,1,1,3,1,1,1,1,1,2,1,1,1,1,1,1,1,1,1,1,1,1,1720.txt
23,0,3,2,0,4,0,0,0,0,14,0,13,28,26,25,0,22,0,25,0,6,1,1,1,14,27,22,24,28,1,1,1,1,1,3,1,1,1,1,1,16,1,1,1,1,1,1,1,1,1,1,1,1,1723.txt
23,0,3,2,0,4,0,0,0,0,14,0,13,28,26,25,0,22,0,25,0,6,1,1,1,14,27,22,24,28,1,1,1,1,1,1,1,1,1,1,1,15,1,1,1,1,1,1,1,1,4,1,1,1,1725.txt
23,0,3,2,0,4,0,0,0,0,14,0,13,28,26,25,0,22,0,25,0,6,1,1,1,14,27,22,24,28,1,1,1,1,1,1,1,1,1,1,1,15,1,1,1,1,1,1,1,1,4,1,1,1,1727.txt
23,0,3,20,0,4,0,0,0,0,14,0,13,0,0,20,0,20,0,25,0,6,2,2,2,0,0,0,0,0,0,0,0,0,0,0,13,6,11,11,7,0,6,6,0,13,12,6,7,2,0,3,30,15,1728.txt
23,0,3,2,0,4,0,0,0,0,14,0,13,28,26,25,0,22,0,25,0,6,1,1,1,14,27,22,24,28,1,1,1,1,1,1,1,1,1,1,1,15,1,1,1,1,1,1,1,1,1,1,1,1,1732.txt
23,0,3,2,0,4,0,0,0,0,14,0,13,28,26,25,0,22,0,25,0,6,29,10,29,6,6,16,6,6,3,0,0,0,0,12,12,6,11,11,7,15,6,6,16,12,3,6,7,3,0,8,30,0,1734.txt
23,26,3,20,0,4,0,0,0,0,27,24,3,0,0,20,0,20,0,0,0,6,29,10,29,0,0,0,0,0,0,0,0,0,0,0,12,6,0,0,7,15,6,6,0,12,0,0,0,0,0,3,30,0,1735.txt
23,0,3,2,0,4,0,0,0,0,14,0,13,28,26,25,0,22,0,25,0,6,29,10,29,0,0,0,0,0,0,0,0,0,0,0,12,6,0,0,7,15,6,6,0,12,0,0,0,0,0,3,30,0,1737.txt
23,0,3,2,0,10,0,0,0,0,14,0,13,28,26,25,0,22,0,25,0,6,9,14,27,16,17,5,12,12,0,10,6,6,7,6,13,23,26,9,7,0,6,6,0,13,4,12,13,4,22,12,15,15,1739.txt
23,0,3,2,0,10,0,0,0,0,14,0,13,28,26,25,0,22,0,25,0,6,1,1,1,14,27,22,24,28,1,1,1,1,1,1,1,1,1,1,7,0,6,6,6,6,15,5,5,18,4,8,30,8,1744.txt
23,0,3,2,0,4,0,0,0,0,14,0,13,28,26,25,0,22,0,25,0,6,29,10,29,26,11,2,20,23,10,19,23,22,25,12,12,7,28,25,7,15,6,6,16,12,24,7,8,18,13,8,30,19,1745.txt
23,0,3,2,0,4,0,0,0,0,14,0,13,28,26,25,0,22,0,25,0,6,1,1,1,14,27,22,24,28,0,0,0,0,0,1,12,6,0,0,7,15,6,6,0,12,0,0,0,0,4,3,30,0,1747.txt
23,0,3,20,0,4,0,0,0,0,14,0,13,0,0,20,0,20,0,25,0,6,5,5,5,0,0,0,0,0,0,0,0,0,0,0,12,6,0,0,7,15,6,6,0,13,0,0,0,0,0,12,0,15,1749.txt
23,0,3,2,0,24,5,3,5,0,14,0,13,28,26,25,0,22,0,25,0,6,7,28,6,26,17,2,20,23,19,15,12,15,16,7,0,23,28,20,7,17,6,6,16,6,14,29,28,12,6,29,15,8,1751.txt
23,0,3,2,0,4,0,0,0,0,14,0,13,28,26,25,0,22,0,25,0,6,29,10,29,12,11,0,10,10,5,0,0,0,0,0,12,6,0,0,7,0,6,6,16,12,0,0,0,0,0,8,30,0,1755.txt
23,0,3,2,0,4,0,0,0,0,14,0,13,28,26,25,0,22,0,25,0,6,29,10,29,14,27,22,24,28,1,1,1,1,1,2,1,1,1,1,1,16,1,1,1,1,1,1,1,1,1,1,1,1,1759.txt
23,0,3,2,0,4,0,0,0,0,14,0,13,28,26,25,0,22,0,25,0,6,29,10,29,0,0,0,0,0,0,8,9,8,7,0,13,6,0,0,7,0,6,6,0,12,0,25,0,0,26,3,30,0,1762.txt
15,3,1,1,3,2,3,14,3,2,2,2,2,2,2,2,2,2,2,2,3,3,4,4,9,14,25,27,27,26,1,1,1,1,1,3,1,1,1,1,1,5,1,1,1,1,1,1,1,1,2,1,1,1,1764.txt
23,0,3,2,0,4,0,0,0,0,14,0,13,28,26,25,0,22,0,25,0,6,29,10,29,0,0,0,0,0,0,0,0,0,0,0,12,6,0,0,7,15,6,6,0,12,0,0,0,0,0,3,30,0,1765.txt
26,24,2,29,30,14,23,28,26,8,11,21,10,1,18,7,15,17,9,19,14,14,2,2,2,6,6,17,6,6,5,16,2,14,13,19,20,2,28,18,23,20,22,20,25,21,24,10,11,11,25,16,0,20,1769.txt
23,0,3,2,0,4,0,0,0,0,14,0,13,28,26,25,0,22,0,25,0,6,9,21,27,6,6,9,6,6,0,22,29,29,15,19,12,23,3,3,7,15,6,6,0,13,13,6,7,6,0,12,15,15,1771.txt
23,0,3,2,0,4,0,0,0,0,14,0,13,28,26,25,0,22,0,25,0,6,1,1,1,14,27,22,24,28,0,16,14,14,21,3,12,6,2,2,7,0,6,6,0,12,10,2,2,28,8,3,30,0,1774.txt
23,0,3,2,0,4,0,0,0,0,14,0,13,28,26,25,0,22,0,25,0,6,1,1,1,6,6,0,6,6,19,8,9,8,7,1,12,6,0,0,7,15,6,6,7,12,0,0,0,0,9,3,30,0,1775.txt
23,0,3,2,0,4,0,0,0,0,14,0,13,28,26,25,0,22,0,25,0,6,1,1,1,14,27,22,24,28,1,1,1,1,1,1,1,1,1,1,1,15,1,1,1,1,1,1,1,1,1,1,1,1,1778.txt
23,0,3,2,0,4,0,0,0,0,14,0,13,28,26,25,0,22,0,25,0,6,5,5,5,0,0,0,0,0,0,0,0,0,0,0,12,6,0,0,7,15,6,6,0,13,0,0,0,0,0,3,30,15,1780.txt
23,0,3,2,0,4,0,0,0,0,14,0,13,28,26,25,0,22,0,25,0,6,1,1,1,14,27,22,24,28,1,1,1,1,1,1,1,1,1,1,1,16,1,1,1,1,1,1,1,1,4,1,1,1,1783.txt
23,0,3,2,0,4,0,0,0,0,14,0,13,28,26,25,0,22,0,25,0,6,1,1,1,14,27,22,24,28,5,0,0,0,0,1,12,4,0,0,7,15,6,6,16,12,0,0,0,0,8,8,30,0,1784.txt
23,0,3,20,0,4,0,0,0,0,14,0,13,0,0,20,0,20,0,25,0,6,19,7,7,3,3,13,3,3,0,0,0,0,12,19,3,3,3,3,7,15,6,6,0,13,13,12,13,6,8,3,30,15,1787.txt
23,26,3,20,0,4,0,0,0,1,27,23,26,1,1,5,4,14,5,1,21,20,29,10,29,0,0,0,0,0,3,0,0,0,0,0,2,2,0,0,23,22,12,10,11,12,0,0,0,0,0,8,30,0,1789.txt
23,0,3,2,0,4,0,0,0,0,14,0,13,28,26,25,0,22,0,25,0,6,1,1,1,14,27,22,24,28,1,1,1,1,1,1,1,1,1,1,1,15,1,1,1,1,1,1,1,1,4,1,1,1,1791.txt
23,0,3,2,0,4,0,0,0,0,14,0,13,28,26,25,0,22,0,25,0,6,29,10,29,13,2,0,11,11,5,15,12,15,7,0,12,6,0,0,7,15,6,6,16,12,0,0,0,0,0,8,30,0,1794.txt
23,0,3,2,0,4,0,0,0,0,14,0,13,28,26,25,0,22,0,25,0,6,29,10,29,0,0,0,0,0,0,0,0,0,0,0,12,6,0,0,7,15,6,6,0,12,0,0,0,0,0,3,30,0,1798.txt
23,0,3,20,0,19,6,6,7,28,30,20,13,0,0,20,0,20,0,25,6,7,21,28,28,0,0,6,0,0,5,4,4,4,4,2,8,6,11,11,5,4,5,5,16,7,3,3,3,3,1,16,0,9,1800.txt
23,0,3,2,0,4,0,0,0,0,14,0,13,28,26,25,0,22,0,25,0,6,29,10,29,0,0,0,0,0,0,0,0,0,0,0,12,6,0,0,7,15,6,6,0,12,0,0,0,0,0,3,6,0,1801.txt
23,0,3,2,0,4,0,0,0,0,14,0,13,28,26,25,0,22,0,25,0,6,1,1,1,14,27,22,24,28,1,1,1,1,1,1,1,1,1,1,1,15,1,1,1,1,1,1,1,1,4,1,1,1,1803.txt
23,0,3,2,0,4,0,0,0,0,14,0,13,28,26,25,0,22,0,25,0,6,1,1,1,14,27,22,24,28,5,0,0,0,0,1,12,4,0,0,7,15,6,6,7,12,0,0,0,0,0,3,6,0,1805.txt
23,0,3,20,0,4,0,0,0,0,14,0,13,0,0,20,0,20,0,25,0,6,29,10,29,14,27,22,24,28,1,1,1,1,1,2,1,1,1,1,7,15,6,6,0,12,3,3,3,3,1,3,30,0,1808.txt
23,0,3,20,0,4,0,0,0,0,14,0,13,0,0,20,0,20,0,0,0,6,29,10,29,0,0,0,0,0,0,0,0,0,0,0,12,7,0,0,7,15,6,6,0,12,0,0,0,0,0,3,6,0,1810.txt
23,0,3,2,0,10,0,0,0,0,14,0,13,28,26,25,0,22,0,25,0,6,9,21,27,12,11,5,10,10,5,15,3,15,7,23,12,6,3,3,7,15,6,6,16,5,4,6,7,7,0,9,30,7,1812.txt
23,0,3,2,0,4,0,0,0,0,14,0,13,28,26,25,0,22,0,25,0,6,1,1,1,14,27,22,24,28,1,1,1,1,1,1,1,1,1,1,1,15,1,1,1,1,1,1,1,1,4,1,1,1,1814.txt
23,0,3,20,0,4,30,29,7,0,14,0,13,0,0,20,0,20,0,25,0,6,22,24,23,0,0,6,0,0,3,4,4,4,4,2,3,3,2,2,25,15,14,15,16,9,3,3,3,3,1,27,7,3,1816.txt
28,3,2,14,3,2,3,9,1,1,7,4,4,7,9,2,16,27,14,1,15,24,2,2,2,9,25,27,27,26,1,1,1,1,1,2,1,1,1,1,14,6,13,14,11,13,3,3,3,3,1,16,23,15,1818.txt
23,0,3,20,0,4,0,0,0,0,14,0,13,0,0,20,0,20,0,25,0,6,29,10,29,0,0,12,0,0,0,0,0,0,12,12,12,6,12,12,7,15,6,6,0,12,2,9,10,2,3,3,30,0,1820.txt
23,0,3,20,0,4,6,6,7,0,14,0,13,0,0,20,0,20,0,25,0,6,9,13,27,7,29,9,16,18,7,22,29,18,15,19,12,6,11,11,7,15,6,6,0,13,13,6,7,6,0,3,30,15,1824.txt
23,0,3,2,0,4,0,0,0,0,14,0,13,28,26,25,0,22,0,25,0,6,1,1,1,14,27,22,24,28,1,1,1,1,1,1,1,1,1,1,1,15,1,1,1,1,1,1,1,1,1,1,1,1,1825.txt
23,0,3,2,0,4,0,0,0,0,14,0,13,28,26,25,0,22,0,25,0,6,5,5,5,0,0,0,0,0,8,0,0,0,0,0,12,6,0,0,7,15,6,6,16,7,0,0,0,0,0,12,0,9,1827.txt
23,8,3,2,3,4,0,0,0,1,11,9,7,23,6,17,11,14,14,24,15,12,16,21,13,18,17,12,14,14,5,7,8,9,0,19,2,25,11,11,23,20,22,28,11,7,16,6,7,19,0,16,9,8,1830.txt
23,0,3,2,0,4,0,0,0,0,14,0,13,28,26,25,0,22,0,25,0,6,1,1,1,14,27,22,24,28,9,16,2,14,21,1,12,6,3,3,7,15,6,6,7,12,5,5,5,5,4,7,30,0,1831.txt
23,0,3,2,0,4,0,0,0,0,14,0,13,28,26,25,0,22,0,25,0,6,1,1,1,14,27,22,24,28,1,1,1,1,1,1,1,1,1,1,1,8,1,1,1,1,1,1,1,1,1,1,1,1,1833.txt
23,0,3,2,0,4,0,0,0,0,14,0,13,28,26,25,0,22,0,25,0,6,1,1,1,14,27,22,24,28,1,1,1,1,1,9,1,1,1,1,1,15,1,1,1,1,1,1,1,1,1,1,1,1,1836.txt
23,0,3,2,0,4,0,0,0,0,14,0,13,28,26,25,0,22,0,25,0,6,1,1,1,14,27,22,24,28,1,1,1,1,1,3,1,1,1,1,1,0,1,1,1,1,1,1,1,1,1,1,1,1,1838.txt
15,3,1,1,3,2,29,23,28,2,2,2,2,2,2,10,11,30,14,9,10,8,4,4,9,9,25,27,27,26,10,8,9,8,7,3,22,20,26,9,27,5,19,20,30,12,27,5,5,21,4,7,30,4,1840.txt
23,0,3,2,0,4,0,0,0,0,14,0,13,28,26,25,0,22,0,25,0,6,1,1,1,6,6,4,6,6,10,8,9,8,7,1,6,11,7,7,7,15,6,6,0,12,5,5,5,5,4,3,30,0,1842.txt
23,0,3,2,0,4,0,0,0,0,14,0,13,28,26,25,0,22,0,0,0,6,1,1,1,14,27,22,24,28,1,1,1,1,1,3,1,1,1,1,1,15,1,1,1,1,1,1,1,1,1,1,1,1,1844.txt
23,0,3,2,0,10,0,0,0,0,14,0,13,28,26,25,0,22,0,25,0,6,1,1,1,14,27,22,24,28,1,1,1,1,1,3,1,1,1,1,1,15,1,1,1,1,1,1,1,1,1,1,1,1,1847.txt
23,0,3,2,0,4,0,0,0,0,14,0,13,28,26,25,0,22,0,25,0,6,1,1,1,14,27,22,24,28,1,1,1,1,1,1,1,1,1,1,1,15,1,1,1,1,1,1,1,1,4,1,1,1,1850.txt
23,26,3,2,0,4,0,0,0,0,27,24,3,28,26,25,0,22,0,25,0,6,1,1,1,14,27,22,24,28,1,1,1,1,1,3,1,1,1,1,1,0,1,1,1,1,1,1,1,1,1,1,1,1,1851.txt
23,0,3,2,0,4,0,0,0,0,14,0,13,28,26,25,0,22,0,25,0,6,1,1,1,14,27,22,24,28,1,1,1,1,1,1,1,1,1,1,1,3,1,1,1,1,1,1,1,1,4,1,1,1,1854.txt
23,0,3,2,0,4,0,0,0,0,14,0,13,28,26,25,0,22,0,0,0,6,5,5,5,0,0,0,0,0,0,0,0,0,0,0,12,6,0,0,7,0,6,6,0,13,0,0,0,0,0,3,30,15,1855.txt
23,0,3,2,0,4,0,0,0,0,14,0,13,28,26,25,0,22,0,25,0,6,1,1,1,14,27,22,24,28,1,1,1,1,1,1,1,1,1,1,1,15,1,1,1,1,1,1,1,1,1,1,1,1,1858.txt
23,0,3,2,0,10,0,0,0,0,14,0,13,28,26,25,0,22,0,25,0,6,1,1,1,14,27,22,24,28,1,1,1,1,1,1,1,1,1,1,1,15,1,1,1,1,1,1,1,1,14,1,1,1,1860.txt
23,0,3,2,0,4,0,0,0,0,14,0,13,28,26,25,0,22,0,25,0,6,1,1,1,14,27,22,24,28,0,0,0,0,0,1,12,6,0,0,7,15,6,6,0,12,0,0,0,0,4,3,6,0,1861.txt
23,4,3,2,2,4,0,0,0,1,1,1,1,1,1,1,1,1,1,1,22,17,29,10,29,0,0,0,0,0,0,0,0,0,0,0,2,2,0,0,2,1,2,2,2,12,0,0,0,0,0,3,30,0,1863.txt
23,0,3,2,0,4,0,0,0,0,14,0,13,28,26,25,0,22,0,25,0,6,1,1,1,14,27,22,24,28,0,0,0,0,0,1,12,6,0,0,7,0,6,6,0,12,0,0,0,0,9,3,30,0,1865.txt
23,0,3,2,0,4,0,0,0,0,14,0,13,28,26,25,0,22,0,25,0,6,1,1,1,14,27,22,24,28,1,1,1,1,1,1,1,1,1,1,1,0,1,1,1,1,1,1,1,1,1,1,1,1,1867.txt
23,0,3,2,0,4,0,0,0,0,14,0,13,28,26,25,0,22,0,25,0,6,1,1,1,14,27,22,24,28,1,1,1,1,1,1,1,1,1,1,1,15,1,1,1,1,1,1,1,1,4,1,1,1,1870.txt
23,0,3,2,0,4,0,0,0,0,14,0,13,28,26,25,0,22,0,25,0,6,1,1,1,14,27,22,24,28,1,1,1,1,1,1,1,1,1,1,7,15,6,6,0,12,0,0,0,0,4,3,30,0,1872.txt
28,4,17,10,29,15,23,23,13,9,8,21,19,1,1,23,30,14,28,1,10,8,29,10,29,0,0,0,0,0,3,0,0,0,0,0,20,2,0,0,2,1,2,2,2,12,0,0,0,0,8,8,6,0,1874.txt
23,0,3,2,0,4,0,0,0,0,14,0,13,28,26,25,0,22,0,25,0,6,1,1,1,14,27,22,24,28,1,1,1,1,1,1,1,1,1,1,1,15,1,1,1,1,1,1,1,1,4,1,1,1,1876.txt
23,0,3,2,0,4,0,0,0,0,14,0,13,28,26,25,0,22,0,25,0,6,1,1,1,14,27,22,24,28,1,1,1,1,1,1,1,1,1,1,1,15,1,1,1,1,1,1,1,1,1,1,1,1,1879.txt
23,0,3,2,0,4,0,0,0,0,14,0,13,28,26,25,0,22,0,25,0,6,2,2,2,14,27,22,24,28,19,4,4,4,0,2,12,6,2,2,7,16,6,6,16,6,3,3,3,3,23,8,30,8,1880.txt
23,0,3,20,0,4,0,0,0,0,14,0,13,0,0,20,0,20,0,25,0,6,29,10,29,0,0,0,0,0,0,0,0,0,0,0,12,6,0,0,7,15,6,6,0,12,0,0,0,0,0,3,6,0,1884.txt
23,0,3,2,0,4,0,0,0,0,14,0,13,28,26,25,0,22,0,25,0,6,1,1,1,14,27,22,24,28,1,1,1,1,1,1,1,1,1,1,1,15,1,1,1,1,1,1,1,1,1,1,1,1,1885.txt
23,0,3,2,0,4,0,0,0,0,14,0,13,28,26,25,0,22,0,25,0,6,1,1,1,14,27,22,24,28,1,1,1,1,1,3,1,1,1,1,1,15,1,1,1,1,1,1,1,1,1,1,1,1,1887.txt
23,0,3,2,0,4,6,6,7,0,14,0,13,28,26,25,0,22,0,25,0,6,29,10,29,26,10,26,20,23,11,28,22,21,24,12,9,21,28,25,11,9,11,13,3,12,21,9,10,18,8,3,30,19,1890.txt
23,0,3,2,0,4,0,0,0,0,14,0,13,28,26,25,0,22,0,25,0,6,1,1,1,14,27,22,24,28,1,1,1,1,1,1,1,1,1,1,1,15,1,1,1,1,1,1,1,1,1,1,1,1,1892.txt
23,0,3,2,0,4,0,0,0,0,14,0,13,28,26,25,0,22,0,25,0,6,1,1,1,14,27,22,24,28,1,1,1,1,1,1,1,1,1,1,1,15,1,1,1,1,1,1,1,1,4,1,1,1,1894.txt
23,0,3,2,0,4,0,0,0,0,14,0,13,28,26,25,0,22,0,25,0,6,7,27,6,6,6,12,6,6,21,0,0,0,7,30,12,23,26,9,7,15,6,6,5,26,13,6,7,6,0,28,22,30,1898.txt
26,4,1,1,2,1,1,4,1,1,1,1,1,8,21,1,1,1,1,11,22,17,17,22,17,3,3,19,3,3,0,5,5,5,5,15,2,18,9,6,12,26,25,28,22,24,6,6,7,6,0,15,15,30,1900.txt
23,0,3,2,0,4,0,0,0,0,14,0,13,28,26,25,0,22,0,25,0,6,1,1,1,14,27,22,24,28,1,1,1,1,1,1,1,1,1,1,1,15,1,1,1,1,1,1,1,1,4,1,1,1,1901.txt
23,0,3,2,0,4,0,0,0,0,14,0,13,28,26,25,0,22,0,25,0,6,1,1,1,14,27,22,24,28,1,1,1,1,1,1,1,1,1,1,1,3,1,1,1,1,1,1,1,1,4,1,1,1,1903.txt
23,0,3,2,0,4,0,0,0,0,14,0,13,28,26,25,0,22,0,25,0,6,9,21,27,6,6,9,6,6,0,8,9,8,7,19,12,6,3,3,7,15,6,6,0,13,5,12,13,5,9,3,30,15,1906.txt
23,0,3,2,0,4,0,0,0,0,14,0,13,28,26,25,0,22,0,25,0,6,1,1,1,12,11,4,10,10,0,0,0,0,0,1,12,6,3,3,7,15,6,6,0,12,4,5,5,4,4,3,30,0,1908.txt
23,0,3,2,0,4,0,0,0,0,14,0,13,28,26,25,0,22,0,25,0,6,29,10,29,12,2,0,10,10,19,0,0,0,0,0,12,6,3,3,7,15,6,6,16,12,4,7,8,7,8,8,30,0,1911.txt
26,13,2,29,1,14,23,13,26,21,9,9,9,23,25,17,11,26,13,24,17,12,27,7,7,27,2,12,20,23,29,23,28,18,28,21,22,8,23,27,30,7,8,8,10,18,22,14,15,17,8,19,24,27,1913.txt
23,0,3,2,0,4,0,0,0,0,14,0,13,28,26,25,0,22,0,25,0,6,29,10,29,6,6,4,6,6,0,0,0,0,6,12,12,6,3,3,7,15,6,6,0,12,4,9,10,4,9,3,30,0,1914.txt
15,3,2,29,1,2,3,23,3,2,2,8,2,2,2,2,2,2,2,2,3,3,4,4,9,9,25,27,27,26,1,1,1,1,1,3,1,1,1,1,1,5,1,1,1,1,1,1,1,1,2,1,1,1,1916.txt
23,4,1,1,3,7,29,4,28,2,9,2,7,1,1,5,4,13,5,1,16,14,1,1,1,0,0,0,0,0,0,0,0,0,0,1,16,2,0,0,2,1,2,2,2,13,0,0,0,0,4,3,30,15,1919.txt
23,3,3,2,3,4,0,0,0,2,2,2,2,2,2,5,4,13,5,19,10,8,1,1,1,14,27,22,24,28,0,0,0,0,0,1,30,2,0,0,12,5,25,19,23,12,0,0,0,0,4,3,30,0,1921.txt
23,0,3,2,0,10,0,0,0,0,14,0,13,28,26,25,0,22,0,25,0,6,1,1,1,14,27,22,24,28,1,1,1,1,1,1,1,1,1,1,1,15,1,1,1,1,1,1,1,1,1,1,1,1,1923.txt
23,0,3,2,0,4,0,0,0,0,14,0,13,28,26,25,0,22,0,25,0,6,29,10,29,6,6,12,6,6,5,8,9,8,7,12,13,6,28,17,7,16,6,6,16,12,16,9,10,11,6,29,21,0,1926.txt
23,0,3,2,0,4,0,0,0,0,14,0,13,28,26,25,0,22,0,25,0,6,1,1,1,14,27,22,24,28,0,8,9,8,7,1,12,6,3,3,7,15,6,6,0,12,4,9,10,4,9,3,30,0,1928.txt
23,0,3,2,0,4,0,0,0,0,14,0,13,28,26,25,0,22,0,25,0,6,1,1,1,14,27,22,24,28,1,1,1,1,1,3,1,1,1,1,1,15,1,1,1,1,1,1,1,1,1,1,1,1,1930.txt
23,0,3,2,0,4,0,0,0,0,14,0,13,28,26,25,0,22,0,25,0,6,1,1,1,13,2,4,30,11,0,8,9,8,7,1,12,6,6,6,7,15,6,6,0,12,4,5,5,4,4,3,30,0,1932.txt
23,0,3,2,0,4,0,0,0,0,14,0,13,28,26,25,0,22,0,25,0,6,1,1,1,14,27,22,24,28,2,0,0,0,0,3,3,3,3,3,7,0,6,6,0,12,10,6,7,2,0,3,30,0,1934.txt
23,0,3,2,0,4,0,0,0,0,14,0,13,28,26,25,0,22,0,25,0,6,29,10,29,14,27,22,24,28,0,0,0,0,7,0,12,6,0,0,7,15,6,6,0,12,0,0,0,0,8,3,3,0,1937.txt
23,0,3,2,0,4,0,0,0,0,14,0,13,28,26,25,0,22,0,25,0,6,1,1,1,14,27,22,24,28,1,1,1,1,1,3,1,1,1,1,1,15,1,1,1,1,1,1,1,1,1,1,1,1,1938.txt
23,0,3,2,0,4,0,0,0,0,14,0,13,28,26,25,0,22,0,25,0,6,29,10,29,24,15,9,29,25,0,22,13,18,15,12,12,6,19,22,3,9,3,3,3,12,8,7,8,9,9,3,3,0,1941.txt
23,0,3,2,0,4,0,0,0,0,14,0,13,28,26,25,0,22,0,25,0,6,1,1,1,14,27,22,24,28,0,0,0,0,7,1,12,6,0,0,7,15,6,6,0,12,0,0,0,0,4,3,30,0,1942.txt
23,0,3,2,0,4,0,0,0,0,14,0,13,28,26,25,0,22,0,25,0,6,1,1,1,14,27,22,24,28,1,1,1,1,1,3,1,1,1,1,1,15,1,1,1,1,1,1,1,1,1,1,1,1,1944.txt
23,0,3,2,0,4,0,0,0,0,14,0,13,28,26,25,0,22,0,25,0,6,29,10,29,3,3,9,3,3,29,8,9,8,7,12,6,11,2,2,7,15,6,6,0,12,27,9,10,21,9,3,30,19,1947.txt
23,0,3,2,0,4,0,0,0,0,14,0,13,28,26,25,0,22,0,25,0,6,9,5,27,0,0,0,0,0,3,0,0,0,0,0,12,6,0,0,7,15,6,6,16,5,0,0,0,0,0,8,30,7,1948.txt
23,0,3,2,0,4,0,0,0,0,14,0,13,28,26,25,0,22,0,25,0,6,29,10,29,18,11,9,14,14,0,13,13,18,14,12,12,4,3,3,7,15,6,6,0,12,13,9,10,6,9,3,30,0,1951.txt
23,0,3,2,0,4,0,0,0,0,14,0,13,28,26,25,0,22,0,25,0,6,29,10,29,6,6,9,6,6,7,22,13,18,15,12,12,6,3,3,7,0,6,6,0,12,29,9,10,23,8,3,3,4,1952.txt
23,0,3,2,0,4,0,0,0,0,14,0,13,28,26,25,0,22,0,25,0,6,1,1,1,14,27,22,24,28,1,1,1,1,1,1,1,1,1,1,1,17,1,1,1,1,1,1,1,1,4,1,1,1,1954.txt
23,0,3,2,0,4,0,0,0,0,14,0,13,28,26,25,0,22,0,25,0,6,1,1,1,14,27,22,24,28,1,1,1,1,1,1,1,1,1,1,1,15,1,1,1,1,1,1,1,1,4,1,1,1,1956.txt
23,0,3,2,0,4,0,0,0,0,14,0,13,28,26,25,0,22,0,25,0,6,29,10,29,6,6,12,6,6,10,8,9,8,7,12,6,11,19,25,7,15,6,6,16,12,8,9,10,9,8,8,30,0,1959.txt
26,3,2,29,18,2,23,23,26,22,2,9,9,26,2,17,11,6,14,24,10,8,29,10,29,9,25,27,27,26,10,28,24,22,23,12,16,8,28,25,14,6,8,8,10,12,23,9,10,28,14,8,30,19,1961.txt
23,0,3,20,0,4,0,0,0,0,14,0,13,0,0,20,0,20,0,25,0,6,29,10,29,6,6,2,6,6,27,28,24,21,23,12,12,6,11,11,7,0,6,6,16,12,23,7,8,18,8,8,30,19,1964.txt
23,4,3,2,3,4,0,0,0,12,26,30,9,16,16,17,15,13,14,9,15,14,16,21,13,6,6,4,6,6,0,8,9,8,7,19,23,28,3,3,12,20,19,20,29,13,4,5,5,4,4,12,15,15,1965.txt
23,0,3,2,0,4,0,0,0,0,14,0,13,28,26,25,0,22,0,25,0,6,1,1,1,0,0,0,0,0,0,0,0,0,0,1,12,6,0,0,7,15,6,6,0,12,0,25,0,0,26,3,30,0,1970.txt
23,3,3,2,0,4,0,0,0,2,14,2,2,2,2,2,2,2,2,2,3,3,1,1,1,14,27,22,24,28,1,1,1,1,1,1,1,1,1,1,1,5,1,1,1,1,1,1,1,1,1,1,1,1,1973.txt
23,0,3,2,0,4,0,0,0,0,14,0,13,28,26,25,0,22,0,25,0,6,9,12,27,6,6,9,6,6,0,23,29,18,28,19,12,6,3,3,7,15,6,6,0,13,4,6,7,4,0,3,30,15,1974.txt
23,0,3,2,0,4,0,0,0,0,14,0,13,28,26,25,0,22,0,25,0,27,1,1,1,14,27,22,24,28,1,1,1,1,1,1,1,1,1,1,1,15,1,1,1,1,1,1,1,1,1,1,1,1,1976.txt
23,0,3,2,0,4,0,0,0,0,14,0,13,28,26,25,0,22,0,25,0,6,22,24,23,5,5,0,5,5,0,0,0,0,12,0,3,3,0,0,25,15,14,15,0,9,0,0,0,0,9,2,2,3,1979.txt
23,0,3,2,0,4,0,0,0,0,14,0,13,28,26,25,0,22,0,25,0,6,1,1,1,14,27,22,24,28,3,0,0,0,0,1,12,6,0,0,7,15,6,6,7,12,0,0,0,0,9,3,30,0,1981.txt
23,0,3,20,0,19,6,6,7,28,30,20,13,0,0,20,0,20,0,25,6,7,29,10,29,0,0,6,0,0,0,4,4,4,0,2,8,6,2,2,5,4,5,5,0,12,3,3,3,3,1,29,9,0,1983.txt
26,3,2,14,3,2,17,23,14,22,2,4,4,7,2,6,11,17,14,24,10,8,29,10,29,14,4,3,4,16,5,4,4,4,4,2,7,18,2,2,14,6,13,14,27,12,3,3,3,3,1,8,30,19,1984.txt
26,10,12,19,10,16,22,13,26,6,12,30,9,18,21,17,11,30,13,24,15,24,27,19,22,19,2,12,15,15,29,22,28,28,15,18,22,8,3,3,30,7,8,8,10,18,22,14,15,28,15,7,30,22,1986.txt
23,0,3,2,0,4,0,0,0,0,14,0,13,28,26,25,0,22,0,25,0,6,29,10,29,3,3,11,3,3,10,0,0,0,0,12,12,6,3,3,7,15,6,6,0,12,4,6,7,4,0,3,30,0,1989.txt
23,0,3,2,0,4,0,0,0,0,14,0,13,28,26,25,0,22,0,25,0,6,1,1,1,14,27,22,24,28,1,1,1,1,1,1,1,1,1,1,1,15,1,1,1,1,1,1,1,1,4,1,1,1,1991.txt
23,0,3,2,0,4,6,6,7,15,14,0,13,28,26,25,14,22,20,18,23,11,29,10,29,15,29,4,16,18,10,9,10,17,12,12,12,6,4,4,7,15,6,6,0,12,5,2,2,5,12,3,30,4,1992.txt
23,0,3,2,0,4,0,0,0,0,14,0,13,28,26,25,0,22,0,25,0,6,1,1,1,14,27,22,24,28,1,1,1,1,1,1,1,1,1,1,1,15,1,1,1,1,1,1,1,1,1,1,1,1,1995.txt
23,0,3,2,0,10,0,0,0,0,14,0,13,28,26,25,0,22,0,25,0,6,1,1,1,14,27,22,24,28,1,1,1,1,1,1,1,1,1,1,1,15,1,1,1,1,1,1,1,1,1,1,1,1,1997.txt
23,0,3,2,0,4,0,0,0,0,14,0,13,28,26,25,0,22,0,25,0,6,29,10,29,0,0,0,0,0,0,0,0,0,12,0,12,6,0,0,7,15,6,6,0,12,0,0,0,0,0,3,30,0,1999.txt
15,3,2,10,3,2,3,23,3,2,2,2,2,2,2,2,2,2,2,2,3,3,1,1,1,14,27,22,24,28,1,1,1,1,1,1,1,1,1,1,1,6,1,1,1,1,1,1,1,1,1,1,1,1,2001.txt
23,26,3,2,0,4,0,0,0,0,27,24,3,28,26,25,0,22,0,25,0,6,29,10,29,6,6,24,6,6,5,28,23,23,20,12,12,6,13,13,7,15,6,6,16,12,16,9,10,11,8,8,30,0,2005.txt
23,0,3,2,0,4,0,0,0,0,14,0,13,28,26,25,0,22,0,25,0,6,29,10,29,0,0,0,0,0,0,0,0,0,0,0,12,6,0,0,7,15,6,6,0,12,0,0,0,0,0,3,30,0,2007.txt
23,0,3,2,0,4,6,6,7,0,14,0,13,28,26,25,0,22,0,25,0,6,2,2,2,14,27,22,24,28,5,8,9,8,7,30,12,6,3,3,7,15,6,6,16,26,8,12,13,9,28,8,30,30,2008.txt
26,24,30,30,12,7,29,4,28,10,1,1,1,8,16,1,1,1,1,9,22,17,10,23,17,3,3,9,3,3,7,5,5,29,5,19,27,14,12,29,16,20,25,9,9,13,4,12,13,4,26,12,12,15,2012.txt
26,3,25,29,3,26,14,23,19,2,2,2,9,5,2,10,16,17,13,30,21,20,4,4,9,9,25,27,27,26,3,16,14,14,21,3,20,20,4,4,30,19,18,17,30,12,2,9,10,12,26,10,30,19,2015.txt
23,0,3,2,0,4,0,0,0,0,14,0,13,28,26,25,0,22,0,25,0,6,1,1,1,14,27,22,24,28,3,8,9,8,7,1,12,4,26,9,7,15,6,6,7,12,4,5,5,7,4,8,30,0,2017.txt
23,0,3,2,0,4,0,0,0,0,14,0,13,28,26,25,0,22,0,25,0,6,1,1,1,14,27,22,24,28,1,1,1,1,1,1,1,1,1,1,1,15,1,1,1,1,1,1,1,1,4,1,1,1,2020.txt
23,0,3,2,0,4,0,0,0,0,14,0,13,28,26,25,0,22,0,25,0,6,1,1,1,14,27,22,24,28,1,1,1,1,1,1,1,1,1,1,1,15,1,1,1,1,1,1,1,1,1,1,1,1,2022.txt
23,0,3,2,0,4,0,0,0,0,14,0,13,28,26,25,0,22,0,25,0,6,1,1,1,14,27,22,24,28,0,0,0,0,0,1,12,6,0,0,7,15,6,6,0,12,0,0,0,0,4,3,30,0,2024.txt
23,0,3,2,0,4,0,0,0,0,14,0,13,28,26,25,0,22,0,25,0,6,1,1,1,14,27,22,24,28,1,1,1,1,1,1,1,1,1,1,7,0,6,6,0,12,5,5,5,5,4,3,30,0,2026.txt
23,0,3,2,0,4,0,0,0,0,14,0,13,28,26,25,0,22,0,25,0,6,29,10,29,0,0,0,0,0,0,0,0,0,0,0,12,6,0,0,7,15,6,6,0,12,0,0,0,0,9,3,30,0,2029.txt
23,0,3,2,0,4,0,0,0,0,14,0,13,28,26,25,0,22,0,25,0,6,5,5,5,2,17,18,10,2,15,15,12,15,0,23,12,23,24,30,7,15,6,6,16,7,9,0,6,10,0,16,0,9,2031.txt
23,0,3,2,0,4,0,0,0,0,14,0,13,28,26,25,0,22,0,25,0,6,1,1,1,14,27,22,24,28,1,1,1,1,1,3,1,1,1,1,1,3,1,1,1,1,1,1,1,1,1,1,1,1,2032.txt
23,0,3,2,0,4,0,0,0,0,14,0,13,28,26,25,0,22,0,25,0,6,1,1,1,6,6,4,6,6,10,8,9,8,7,1,6,11,3,3,7,15,6,6,0,12,4,5,5,4,4,3,30,0,2034.txt
23,0,3,2,0,4,0,0,0,0,14,0,13,28,26,25,0,22,0,25,0,6,1,1,1,14,27,22,24,28,1,1,1,1,1,1,1,1,1,1,1,15,1,1,1,1,1,1,1,1,1,1,1,1,2037.txt
23,0,3,20,0,4,0,0,0,0,14,0,13,0,0,20,0,20,0,25,0,6,9,13,27,0,0,9,0,0,0,5,5,5,5,14,12,6,3,3,7,15,6,6,0,13,6,6,7,6,0,3,30,15,2038.txt
23,0,3,20,0,4,0,0,0,1,14,1,1,8,12,1,1,1,1,9,22,17,29,10,29,3,3,9,3,3,0,0,0,0,5,12,2,2,11,11,6,25,25,9,9,12,4,6,7,4,0,3,30,0,2040.txt
23,0,3,2,0,4,0,0,0,2,14,2,2,2,2,2,2,2,2,2,3,3,1,1,1,14,27,22,24,28,1,1,1,1,1,1,1,1,1,1,1,5,1,1,1,1,1,1,1,1,4,1,1,1,2043.txt
23,0,3,2,0,4,0,0,0,0,14,0,13,28,26,25,0,22,0,25,0,6,1,1,1,14,27,22,24,28,1,1,1,1,1,1,1,1,1,1,1,15,1,1,1,1,1,1,1,1,1,1,1,1,2045.txt
23,0,3,2,0,10,0,0,0,0,14,0,13,28,26,25,0,22,0,25,0,6,29,10,29,18,9,12,14,14,5,8,9,8,7,12,12,6,11,11,7,15,6,6,16,12,2,6,7,12,0,10,30,0,2049.txt
23,0,3,2,0,4,0,0,0,0,14,0,13,28,26,25,0,22,0,25,0,6,1,1,1,14,27,22,24,28,5,16,14,14,21,1,12,6,26,9,7,15,6,6,6,12,4,5,5,7,4,8,30,0,2052.txt
23,0,3,2,0,4,0,0,0,0,14,0,13,28,26,25,0,22,0,25,0,6,1,1,1,14,27,22,24,28,0,15,12,15,7,1,12,6,3,3,7,15,6,6,0,12,4,5,5,4,4,3,30,0,2053.txt
23,0,3,2,0,4,0,0,0,0,14,0,13,28,26,25,0,22,0,25,0,6,1,1,1,14,27,22,24,28,1,1,1,1,1,1,1,1,1,1,1,15,1,1,1,1,1,1,1,1,9,1,1,1,2055.txt
23,0,3,2,0,4,0,0,0,0,14,0,13,28,26,25,0,22,0,25,0,6,1,1,1,14,27,22,24,28,5,26,24,22,21,1,12,6,23,25,7,15,6,6,16,12,15,9,10,18,8,8,30,0,2057.txt
23,0,3,2,0,4,0,0,0,0,14,0,13,28,26,25,0,22,0,25,0,6,1,1,1,14,27,22,24,28,1,1,1,1,1,3,1,1,1,1,1,15,1,1,1,1,1,1,1,1,1,1,1,1,2060.txt
23,0,3,2,0,4,0,0,0,0,14,0,13,28,26,25,0,22,0,25,0,6,1,1,1,14,27,22,24,28,7,8,9,8,7,1,12,6,2,2,7,15,6,6,0,12,8,5,5,9,4,3,30,19,2062.txt
23,0,3,2,0,4,6,6,7,0,14,0,13,28,26,25,0,22,0,25,0,6,9,22,27,7,7,12,7,18,0,8,9,8,6,19,12,6,3,3,7,15,6,6,0,13,13,6,7,6,0,12,22,15,2066.txt
23,0,3,2,0,4,0,0,0,0,14,0,13,28,26,25,0,22,0,25,0,6,29,10,29,13,9,0,11,11,3,12,11,13,0,0,12,6,0,0,7,15,6,6,16,12,0,0,0,0,0,8,30,0,2067.txt
23,0,3,2,0,4,0,0,0,0,14,0,13,28,26,25,0,22,0,25,0,6,29,10,29,6,6,4,6,6,0,8,9,8,7,12,12,6,3,3,7,15,6,6,0,12,30,7,8,24,9,3,30,4,2069.txt
23,0,3,2,0,4,0,0,0,0,14,0,13,28,26,25,0,22,0,25,0,6,29,10,29,18,2,12,14,14,5,8,9,8,0,12,12,4,3,3,3,2,3,3,3,12,4,9,10,7,8,3,8,0,2072.txt
23,0,3,2,0,4,0,0,0,0,14,0,13,28,26,25,0,22,0,25,0,6,1,1,1,14,27,22,24,28,0,8,9,8,7,1,13,6,2,2,7,16,6,6,0,13,5,5,5,5,4,14,22,15,2074.txt
23,26,3,20,0,10,0,0,0,0,27,24,3,10,8,20,0,20,0,25,0,6,2,2,2,14,27,22,24,28,7,4,4,4,4,2,12,5,2,2,7,15,6,6,0,13,3,3,3,3,1,29,24,15,2078.txt
23,0,3,2,0,4,0,0,0,0,14,0,13,28,26,25,0,22,0,25,0,6,1,1,1,14,27,22,24,28,0,0,0,0,0,1,12,6,3,3,7,15,6,6,0,12,4,6,7,4,0,3,30,0,2080.txt
23,0,3,2,0,4,0,0,0,0,14,0,13,28,26,25,0,22,0,25,0,6,1,1,1,14,27,22,24,28,0,8,9,8,7,1,12,6,3,3,7,15,6,6,0,12,4,5,5,4,4,14,21,0,2083.txt
23,0,3,2,0,4,0,0,0,0,14,0,13,28,26,25,0,22,0,25,0,6,1,1,1,14,27,22,24,28,1,1,1,1,1,4,1,1,1,1,7,0,6,6,7,12,2,4,4,12,2,8,30,0,2085.txt
23,0,3,2,0,4,0,0,0,0,14,0,13,28,26,25,0,22,0,25,0,6,29,10,29,6,6,9,6,6,10,8,9,8,7,12,12,6,2,2,7,15,6,6,0,12,4,9,10,4,8,3,30,0,2087.txt
23,0,3,2,0,4,0,0,0,0,14,0,13,28,26,25,0,22,0,25,0,6,29,10,29,18,11,9,14,14,17,8,19,20,7,12,12,6,3,3,7,16,6,6,16,12,8,9,10,9,30,29,21,0,2090.txt
23,0,3,2,0,4,0,0,0,0,14,0,13,28,26,25,0,22,0,25,0,6,1,1,1,14,27,22,24,28,1,1,1,1,1,1,1,1,1,1,7,17,6,6,0,12,5,9,10,5,9,3,30,0,2092.txt
23,4,30,29,29,14,23,12,23,29,12,30,9,22,6,15,11,26,9,10,15,12,11,21,13,18,17,29,14,14,9,28,23,23,21,19,16,25,23,20,23,20,20,28,20,6,24,29,28,18,6,21,29,8,2093.txt
