0,1,2,3,4,5,6,7,8,9,10,11,12,13,14,15,16,17,18,19,20,21,22,23,24,25,26,27,28,29,30,31,32,33,34,35,36,37,38,39,40,41,42,43,44,45,46,47,48,49,50,51,52,53,filename
0,0,0,0,0,20,19,0,22,0,0,16,30,27,16,0,9,27,16,27,23,4,6,6,3,7,6,7,3,28,0,24,3,3,0,25,23,0,13,6,3,12,6,6,11,3,3,2,3,3,6,7,22,20,2.txt
27,29,23,8,30,5,14,28,4,19,6,7,4,21,4,18,6,6,3,1,30,26,24,1,27,20,4,6,10,7,6,6,1,13,21,9,30,5,9,3,29,25,22,25,8,29,1,10,13,15,25,22,23,23,5.txt
0,0,0,0,0,20,19,0,22,0,0,16,30,27,16,0,9,27,16,24,8,20,6,17,3,7,6,7,3,28,0,24,3,3,0,25,23,0,4,4,3,28,7,7,11,3,6,5,3,3,10,9,16,16,9.txt
0,0,0,0,0,20,19,0,22,0,0,16,30,27,16,0,9,27,16,24,23,4,6,6,3,7,6,7,3,28,17,23,3,3,16,12,13,9,15,24,3,12,6,6,11,28,3,2,30,15,6,5,5,5,12.txt
0,0,0,0,0,20,19,0,22,0,0,16,30,27,16,0,9,27,16,24,23,4,6,6,3,7,6,7,3,28,0,24,3,3,0,25,23,0,13,6,3,12,6,6,11,5,3,2,5,5,10,9,16,16,14.txt
0,0,0,0,0,26,19,0,23,0,0,0,0,28,16,0,9,27,16,24,12,6,27,19,14,9,9,11,3,10,5,5,16,0,4,11,12,17,10,29,5,3,21,23,3,3,0,0,3,3,17,17,13,13,16.txt
0,0,0,0,0,20,19,0,22,0,0,16,30,27,16,0,9,27,16,24,23,4,6,6,3,7,6,7,3,28,5,5,3,3,16,12,13,9,2,24,3,12,6,6,11,3,3,2,3,3,6,7,7,7,17.txt
0,0,0,0,0,20,19,0,22,0,0,16,30,27,16,0,9,27,16,24,23,4,6,6,3,7,6,7,3,28,0,24,3,3,0,25,23,0,13,6,3,12,6,6,11,3,3,2,3,3,6,7,9,9,21.txt
0,0,0,0,0,20,19,0,22,0,0,16,30,27,16,0,9,27,16,24,23,4,6,6,3,7,6,7,3,28,0,24,3,3,0,25,23,0,13,6,3,12,6,6,11,3,3,2,3,3,6,7,11,11,23.txt
0,0,0,0,0,20,19,0,22,0,0,16,30,27,16,0,9,27,16,24,23,4,6,20,3,7,6,7,3,28,16,23,13,3,16,12,13,9,15,24,0,12,3,8,11,3,9,11,3,3,25,26,7,7,24.txt
0,0,0,0,0,20,19,0,22,0,0,16,30,27,16,0,9,27,16,24,8,4,6,21,3,7,6,7,3,28,0,24,13,3,0,25,23,0,13,6,0,12,3,8,11,5,25,27,5,5,1,1,1,16,26.txt
0,0,0,0,0,20,19,0,22,0,0,16,30,27,16,0,9,27,16,24,10,6,6,19,12,7,6,7,3,28,16,23,16,7,16,12,13,9,15,24,7,12,14,12,11,3,9,11,3,3,10,9,16,16,28.txt
0,0,0,0,0,20,19,0,22,0,0,16,30,27,16,0,9,28,16,7,23,4,6,6,3,7,6,7,3,28,19,2,3,3,2,13,14,13,15,23,3,12,6,6,11,7,3,3,7,10,5,6,13,13,30.txt
1,29,26,9,12,8,1,1,27,5,27,30,21,25,27,11,19,13,25,29,4,27,4,28,17,11,17,27,18,8,26,29,14,23,22,18,5,23,20,12,11,6,10,18,29,20,19,9,26,23,25,27,30,23,32.txt
0,0,0,0,0,20,19,0,22,0,0,16,30,27,16,0,9,27,16,24,23,4,6,6,3,7,6,7,3,28,0,24,3,3,0,25,23,0,13,6,3,12,6,6,11,3,3,2,3,3,21,5,5,5,34.txt
0,0,0,0,0,20,19,0,22,0,0,16,30,27,16,0,9,27,16,24,23,4,6,6,3,7,6,7,3,28,0,24,3,3,0,25,23,0,13,6,3,12,6,6,11,3,3,2,3,3,6,7,7,7,36.txt
0,0,0,0,0,20,19,0,22,0,0,16,30,27,16,0,9,27,16,24,23,4,6,6,3,7,6,7,3,28,0,24,3,3,0,25,23,0,13,6,3,12,6,6,11,3,3,2,3,3,10,9,16,16,40.txt
0,16,2,6,7,3,19,2,22,26,14,12,29,26,2,0,9,27,16,27,0,0,6,20,0,7,6,7,3,28,5,5,13,11,4,30,15,8,10,28,27,12,21,23,11,5,8,7,5,5,17,5,5,5,41.txt
0,0,0,0,0,20,19,0,22,0,0,16,30,27,16,0,9,27,16,24,23,4,6,6,3,7,6,7,3,28,0,24,3,3,0,25,18,0,5,5,3,12,6,6,11,0,3,2,0,0,10,9,16,16,49.txt
0,0,0,0,0,20,19,0,22,0,0,16,30,27,16,0,9,27,16,24,23,4,6,6,3,7,6,7,3,28,0,24,3,3,0,25,23,0,13,6,3,12,6,6,11,3,2,2,3,3,6,7,22,20,53.txt
0,0,0,0,0,20,19,0,22,0,0,16,30,27,16,0,9,27,16,24,23,4,6,20,3,7,6,7,3,28,0,24,0,0,0,25,23,0,13,6,0,12,3,9,11,0,12,20,0,0,6,5,5,5,55.txt
0,0,0,0,1,20,19,3,5,0,4,5,5,3,3,26,22,10,16,3,23,4,3,6,3,8,8,16,7,14,7,8,3,3,29,1,9,30,30,7,3,12,3,12,11,24,12,27,6,27,12,11,17,1,57.txt
0,0,0,0,0,20,19,0,22,0,0,16,30,27,17,0,9,27,1,27,1,1,6,24,4,7,6,7,3,28,0,24,3,3,0,25,22,0,14,5,3,11,6,6,7,20,16,8,20,18,1,1,1,16,60.txt
0,15,19,1,1,1,1,10,5,1,4,5,5,3,3,23,23,26,16,9,23,4,1,6,3,6,8,16,7,21,11,16,3,3,12,1,9,3,3,12,3,4,6,6,4,5,2,22,5,5,24,28,22,20,61.txt
0,0,0,0,0,20,19,0,22,0,0,16,30,27,16,0,9,27,16,24,23,4,6,6,3,7,6,7,3,28,0,24,3,3,0,25,0,0,0,0,3,12,6,6,11,3,3,2,3,3,10,9,16,16,63.txt
27,15,1,9,1,8,1,12,5,19,4,5,5,3,3,23,23,26,16,9,10,6,18,21,12,28,8,16,18,15,20,17,13,17,7,1,5,27,23,9,0,6,3,12,4,3,8,19,3,3,25,5,5,5,65.txt
27,15,19,12,1,9,1,1,19,22,6,30,24,18,5,4,27,14,3,1,15,8,18,1,20,27,4,6,7,7,8,16,20,12,12,4,20,25,19,3,29,20,29,28,26,27,22,17,13,12,25,19,23,23,68.txt
0,0,0,0,0,20,19,0,22,0,0,16,30,27,16,0,9,27,16,24,23,4,6,6,3,7,6,7,3,28,0,24,3,3,0,25,23,0,13,6,3,12,6,6,11,3,3,6,3,3,10,9,16,17,71.txt
0,0,0,0,0,20,19,0,22,0,0,16,30,27,16,0,9,27,16,24,23,4,6,6,3,7,6,7,3,28,17,7,3,3,17,12,13,9,2,24,3,12,6,6,11,3,3,2,3,3,27,5,5,5,72.txt
0,0,0,0,0,26,19,0,23,0,0,0,0,28,16,0,9,27,16,24,10,6,27,19,12,9,9,11,3,10,5,5,16,7,4,11,12,9,10,24,5,3,14,3,3,1,0,0,20,18,12,11,17,30,76.txt
0,0,0,0,0,20,19,0,22,0,0,16,30,27,16,0,9,27,16,24,23,4,6,6,3,7,6,7,3,28,0,24,3,3,0,25,23,0,13,6,3,12,7,6,11,3,29,6,3,3,10,9,16,17,78.txt
0,0,0,0,0,20,19,0,22,0,0,16,30,27,16,0,9,27,16,24,23,4,6,6,3,7,6,7,3,28,16,22,3,3,16,12,13,9,15,24,3,12,19,14,11,3,4,25,3,3,6,7,7,7,81.txt
0,0,0,0,0,20,19,0,22,0,0,16,30,27,16,0,9,27,16,27,0,0,6,20,0,7,6,7,3,28,0,24,13,0,0,25,17,0,13,6,0,12,3,9,11,5,12,27,5,5,1,1,1,16,84.txt
0,0,0,0,0,20,19,0,22,0,0,16,30,27,16,0,9,27,16,7,10,6,6,19,12,7,6,7,3,28,2,2,16,7,2,11,12,8,15,30,5,12,16,21,11,0,11,13,0,0,1,1,1,30,86.txt
0,0,0,0,0,20,19,0,22,0,0,16,30,27,16,0,9,27,16,24,23,4,6,6,3,7,6,7,3,28,16,22,3,3,16,12,13,11,15,26,3,12,6,6,11,3,3,2,3,3,30,28,9,9,89.txt
0,0,0,0,0,20,19,0,22,0,0,16,30,27,16,0,9,27,16,24,23,4,6,6,3,7,6,7,3,28,0,24,3,3,0,25,23,0,13,6,3,12,6,6,11,5,3,2,5,5,1,1,1,16,90.txt
0,0,0,0,0,26,20,0,23,0,0,0,0,28,16,0,9,27,18,24,10,6,27,19,12,9,9,11,0,10,0,24,16,7,0,25,0,0,0,0,5,0,14,13,0,3,11,20,3,3,10,9,16,30,92.txt
1,13,26,9,4,1,8,8,1,1,1,9,1,8,1,10,10,13,25,5,5,12,4,30,28,6,15,14,16,12,1,8,6,28,7,1,5,24,22,9,11,12,12,20,11,24,24,8,6,27,5,6,27,23,95.txt
0,16,2,6,7,3,20,2,22,26,14,12,12,12,2,0,9,27,18,24,23,4,6,6,3,7,6,7,28,28,16,22,3,3,16,12,13,9,15,24,3,30,5,14,8,3,3,2,3,3,6,7,7,7,97.txt
0,0,0,0,0,20,19,0,22,0,0,16,30,27,16,0,9,27,16,24,23,4,6,6,3,7,6,7,3,28,0,24,3,3,0,25,23,0,13,6,3,12,6,6,11,3,3,2,3,3,5,30,9,9,98.txt
0,0,0,0,0,20,19,0,22,0,0,16,30,27,16,0,9,27,16,24,10,6,27,19,12,23,24,18,3,18,0,24,13,7,0,25,23,0,13,6,0,12,3,12,11,23,28,27,20,18,7,8,9,9,100.txt
0,0,0,0,0,20,19,0,22,0,0,16,30,27,16,0,9,27,16,24,23,4,6,6,3,7,6,7,3,28,0,24,3,3,0,25,23,0,13,6,3,12,6,6,11,3,3,6,3,3,10,9,16,16,102.txt
0,0,0,0,0,20,19,0,22,0,0,16,30,27,16,0,9,27,16,24,23,4,6,6,3,7,6,7,3,28,0,24,3,3,0,25,23,0,13,6,3,12,6,6,11,3,3,2,3,3,1,1,1,16,105.txt
0,0,0,0,0,20,19,0,22,0,0,16,30,27,16,0,9,27,16,24,23,4,6,6,3,7,6,7,3,28,0,24,3,3,0,25,23,0,13,6,3,12,6,6,11,5,3,2,5,5,18,18,26,16,108.txt
0,0,0,0,0,20,19,0,12,0,0,16,30,27,16,22,9,9,29,24,20,21,6,15,16,7,6,22,3,20,24,24,3,3,26,22,22,16,14,5,3,11,18,4,7,30,1,9,15,30,7,8,27,23,110.txt
0,0,0,0,0,20,19,0,22,0,0,16,30,27,16,0,9,27,16,24,10,6,6,20,12,7,6,7,3,28,0,24,13,7,0,25,23,0,13,6,0,12,3,12,11,24,8,7,6,27,10,9,16,16,112.txt
0,0,0,0,0,26,4,0,7,0,0,0,0,28,16,17,7,7,19,10,27,25,5,27,24,21,28,3,21,27,16,22,2,21,16,12,13,11,15,26,15,29,21,23,1,13,12,27,9,8,6,7,9,9,114.txt
0,16,2,6,7,30,10,2,17,27,16,25,13,13,2,17,12,20,20,11,19,16,15,27,8,24,2,3,21,27,5,5,21,18,4,12,13,11,10,26,30,25,19,14,15,13,4,22,9,8,7,8,9,9,116.txt
0,0,0,0,0,20,19,0,22,0,0,16,30,27,16,0,9,27,16,24,23,4,6,19,3,7,6,7,3,28,0,24,13,3,0,25,23,0,13,6,0,12,3,12,11,3,12,27,3,3,30,24,9,9,118.txt
27,13,26,26,12,9,1,1,19,3,27,30,21,18,5,4,27,29,5,20,6,11,19,15,21,10,22,29,16,8,27,19,6,9,8,16,5,30,30,16,24,6,24,28,30,30,21,9,15,16,25,28,27,23,121.txt
0,0,0,0,0,20,19,0,22,0,0,16,30,27,16,0,9,27,16,24,23,4,6,6,3,7,6,7,3,28,0,24,3,3,0,25,23,0,13,6,3,12,7,6,11,3,6,6,3,3,18,18,26,16,123.txt
0,0,0,0,0,20,19,0,22,0,0,16,30,27,16,0,9,27,16,24,23,4,6,6,3,7,6,7,3,28,22,24,3,3,27,23,23,7,13,6,3,12,19,14,11,3,3,2,3,3,6,7,24,24,124.txt
0,0,0,0,0,20,19,0,22,0,0,16,30,27,16,0,9,27,16,24,23,4,6,6,3,7,6,7,3,28,0,24,3,3,0,25,23,0,13,6,3,12,6,6,11,0,3,2,0,0,10,9,16,16,126.txt
0,0,0,0,0,20,19,0,22,0,0,16,30,27,16,0,9,27,16,24,23,4,6,6,3,7,6,7,3,28,0,24,3,3,0,25,23,0,13,6,3,12,6,6,11,3,3,2,3,3,10,9,16,16,128.txt
0,0,0,0,0,26,20,0,23,0,0,0,0,28,16,0,9,27,18,24,10,6,27,19,12,22,23,26,0,18,0,24,13,7,0,25,23,0,13,6,0,0,3,13,0,3,11,12,3,3,10,9,16,29,130.txt
0,0,0,0,0,26,4,0,7,0,0,0,0,28,16,6,7,7,8,10,27,25,5,26,24,4,30,4,5,4,22,24,2,21,27,23,23,7,13,6,30,1,21,23,14,13,9,11,9,8,6,7,11,11,132.txt
0,0,0,0,0,20,19,0,22,0,0,16,30,27,16,0,9,27,16,24,23,4,6,6,3,7,6,7,3,28,0,24,3,3,0,25,23,0,13,6,3,12,6,6,11,5,3,2,5,5,10,9,16,1,135.txt
0,0,0,0,0,26,20,0,23,0,0,0,0,28,16,0,0,27,1,0,1,27,11,30,28,9,9,11,27,10,5,5,13,7,4,11,12,8,10,27,0,15,3,11,17,20,0,0,20,18,14,11,19,30,137.txt
0,0,0,0,0,20,19,0,22,0,0,16,30,27,16,0,9,27,16,24,23,4,6,6,3,7,6,7,3,28,18,2,3,3,18,11,12,8,15,29,3,12,6,6,11,20,3,2,20,18,30,30,13,13,141.txt
0,0,0,0,0,20,19,0,22,0,0,16,30,27,16,0,9,27,16,24,23,4,6,6,3,7,6,7,3,28,0,24,3,3,0,25,17,0,13,6,3,12,6,6,11,0,3,2,0,0,22,28,13,13,144.txt
0,15,21,1,1,1,14,12,5,20,30,5,26,3,3,28,29,29,29,20,5,27,19,15,16,17,8,21,9,15,12,21,12,26,25,27,4,30,30,9,7,20,14,12,26,30,28,12,15,13,25,27,24,24,145.txt
0,0,0,0,0,20,19,0,22,0,0,16,30,27,16,0,9,27,16,24,23,4,6,6,3,7,6,7,3,28,0,24,3,3,0,25,23,0,13,6,3,12,6,6,11,0,3,2,0,0,12,9,17,17,147.txt
0,0,0,0,0,20,19,0,22,0,0,16,30,27,16,0,9,27,16,24,23,4,6,6,3,7,6,7,3,28,0,0,3,3,0,25,23,0,13,6,3,12,6,6,11,3,3,2,3,3,7,8,9,9,149.txt
0,0,0,0,0,20,19,0,22,0,0,16,30,27,16,0,9,27,16,24,23,4,6,6,3,7,6,7,3,28,0,24,3,3,0,25,23,0,13,6,3,12,6,6,11,3,3,2,3,3,27,29,24,24,151.txt
0,15,19,1,25,1,14,10,19,3,24,30,21,3,3,11,11,29,29,20,5,27,19,15,19,10,17,27,10,8,7,30,13,7,22,7,5,30,30,16,0,12,3,13,11,30,15,9,13,17,17,17,27,23,154.txt
0,0,0,0,0,20,19,0,22,0,0,16,30,27,16,0,9,27,16,24,23,4,6,6,3,7,6,7,3,28,0,24,3,3,0,25,23,0,13,6,3,12,6,6,11,3,3,2,3,3,10,9,16,17,156.txt
0,0,0,0,0,20,19,0,22,0,0,16,30,27,16,0,9,27,16,24,23,4,6,6,3,7,6,7,3,28,19,26,3,3,18,13,14,13,15,23,3,10,6,6,6,3,2,22,3,3,30,29,22,20,158.txt
0,0,0,0,0,20,19,0,22,0,0,16,30,27,16,0,9,27,16,24,23,4,6,6,3,7,6,7,3,28,0,24,3,3,0,25,23,0,13,6,3,12,6,6,11,3,3,2,3,3,6,7,11,11,160.txt
0,0,0,0,0,26,19,0,23,0,0,0,0,28,16,0,9,27,16,24,10,6,27,19,12,9,9,11,3,10,16,22,10,7,16,12,13,11,15,26,5,12,21,23,11,0,0,0,0,0,17,17,22,20,161.txt
0,0,0,0,0,20,19,0,22,0,0,16,30,27,16,0,9,27,16,27,23,4,6,6,3,7,6,7,3,28,0,0,3,3,0,25,17,0,13,6,3,12,6,6,11,5,2,22,5,5,5,28,22,20,163.txt
0,0,0,0,0,0,19,0,23,0,0,0,0,28,16,0,9,27,16,24,12,6,27,19,0,9,9,11,3,10,0,24,16,0,0,25,23,0,13,6,7,12,14,12,11,1,11,13,6,27,10,9,16,16,165.txt
0,0,0,0,0,20,19,0,22,0,0,16,30,27,16,0,9,27,16,24,23,4,6,6,3,7,6,7,3,28,0,24,3,3,0,25,23,0,13,6,3,2,6,6,24,3,2,22,3,3,10,9,16,17,167.txt
0,0,0,0,0,20,19,0,22,0,0,16,30,27,16,0,9,27,16,24,23,4,6,6,3,7,6,7,3,28,0,24,3,3,0,25,23,0,13,6,3,12,6,6,11,4,3,2,4,4,11,10,18,16,169.txt
0,0,0,0,0,20,20,0,22,0,0,16,30,27,16,0,9,27,18,24,10,6,27,19,12,23,24,19,0,19,0,24,16,7,0,25,23,0,13,6,5,0,14,13,0,3,28,12,3,3,12,9,17,28,171.txt
0,0,0,0,0,27,19,0,23,0,0,20,0,29,19,0,9,0,16,26,0,7,25,21,13,26,27,0,3,25,19,25,0,11,18,14,15,13,15,23,0,12,3,9,11,7,12,27,7,10,13,24,13,13,173.txt
0,0,0,0,0,20,20,0,22,0,0,16,30,27,16,0,9,27,18,24,10,6,27,25,12,9,9,11,28,10,17,22,10,6,16,12,13,9,15,24,8,15,16,10,17,3,9,11,3,3,25,26,9,9,175.txt
0,0,0,0,0,26,19,0,23,0,0,20,0,28,16,0,9,27,16,24,10,6,27,19,12,9,9,11,3,10,2,25,10,7,18,11,12,8,15,28,7,23,15,12,27,3,11,13,3,3,27,24,0,0,177.txt
0,0,0,0,25,26,19,3,5,0,8,4,6,3,3,10,10,29,16,3,29,0,19,20,0,10,7,8,10,8,7,8,16,11,29,1,1,30,30,16,7,23,14,12,2,24,11,13,29,27,12,9,17,30,179.txt
0,0,0,0,0,26,20,0,23,0,0,0,0,28,16,0,9,27,1,24,16,27,27,24,23,9,9,11,29,10,18,7,16,7,18,11,12,9,15,24,7,15,14,12,17,30,11,13,15,16,10,9,16,30,182.txt
0,0,0,0,0,20,19,0,22,0,0,16,30,27,16,0,9,27,16,24,23,4,6,6,3,7,6,7,3,28,0,24,3,3,0,25,23,0,13,6,3,12,6,6,11,3,3,2,3,3,11,10,18,16,184.txt
0,0,0,0,0,20,19,0,22,0,0,16,30,27,16,0,9,27,16,24,23,4,6,6,3,7,6,7,3,28,0,24,3,3,0,25,23,0,13,6,3,12,6,6,11,3,3,2,3,3,10,9,16,16,188.txt
0,0,0,0,0,20,19,0,22,0,0,16,30,27,16,0,9,27,16,24,23,4,6,6,3,7,6,7,3,28,0,24,3,3,0,25,23,0,13,6,3,12,6,6,11,3,3,2,3,3,6,7,22,20,189.txt
0,0,0,0,0,20,19,0,22,0,0,16,30,27,16,0,9,27,16,24,23,4,6,6,3,7,6,7,3,28,16,22,3,3,16,12,13,11,15,26,3,12,5,14,11,3,3,2,3,3,13,30,9,9,191.txt
17,15,19,25,25,8,1,12,20,18,22,30,21,17,5,11,11,14,14,29,4,28,21,15,20,28,17,27,19,30,8,16,30,15,12,17,28,18,16,8,21,14,30,26,28,17,21,15,13,29,25,5,5,5,194.txt
0,0,0,0,0,20,19,0,22,0,0,16,30,27,16,0,9,27,16,24,23,4,6,6,3,7,6,7,3,28,0,24,3,3,0,25,0,0,0,0,3,3,6,6,3,30,3,2,14,12,10,9,16,16,197.txt
0,0,0,0,0,26,20,0,23,0,0,20,0,28,16,0,9,27,25,24,30,26,27,12,17,9,9,11,26,10,16,7,13,7,16,12,13,11,15,26,0,15,3,21,17,20,9,11,23,20,25,24,24,24,199.txt
0,0,0,0,0,20,19,0,22,0,0,16,30,27,16,0,9,27,16,24,23,4,6,6,3,7,6,7,3,28,0,24,3,3,0,25,23,0,13,6,3,12,6,6,11,3,3,2,3,3,10,9,16,16,203.txt
0,0,0,0,0,20,19,0,22,0,0,16,30,27,16,0,9,27,16,24,23,4,6,6,3,7,6,7,3,28,0,24,3,3,0,25,23,0,13,6,3,12,6,6,11,3,3,2,3,3,10,9,16,16,204.txt
0,0,0,0,0,20,19,0,22,0,0,16,30,27,16,0,9,27,16,24,23,4,6,6,3,7,6,7,3,28,0,24,3,3,0,25,23,0,13,6,3,12,6,6,11,11,2,5,24,24,30,28,22,20,209.txt
0,0,0,0,0,20,19,0,22,0,0,16,30,27,16,0,9,27,16,24,0,0,27,20,0,9,9,11,3,10,0,24,13,11,0,25,23,0,13,6,0,12,21,23,11,0,0,0,0,0,7,8,0,0,210.txt
0,0,0,0,0,20,19,0,22,0,0,16,30,27,16,0,9,27,16,24,23,4,6,6,3,7,6,7,3,28,0,24,3,3,0,25,18,0,5,5,3,26,6,6,7,11,3,2,24,24,10,9,16,16,212.txt
0,0,0,0,0,20,19,0,22,0,0,16,30,27,16,0,9,27,16,24,23,4,6,6,3,7,6,7,3,28,23,24,3,3,26,22,23,15,13,6,3,12,19,14,11,5,3,2,5,5,27,28,13,13,214.txt
18,13,26,1,11,5,18,28,30,1,22,30,21,3,3,21,11,15,14,18,30,29,7,15,15,10,17,27,23,30,10,29,9,13,10,1,25,18,16,8,21,19,30,29,28,28,19,14,13,25,8,15,27,23,217.txt
0,0,0,0,0,26,20,0,23,0,0,0,0,28,16,0,9,27,18,24,10,6,27,19,12,9,9,11,27,10,2,25,16,7,2,11,12,8,15,30,5,0,21,23,0,20,0,0,20,18,6,7,0,0,219.txt
0,0,0,0,0,20,19,0,22,0,0,16,30,27,16,0,9,27,16,24,23,4,6,6,3,7,6,7,3,28,0,24,3,3,0,25,0,0,0,0,3,3,6,6,3,3,3,2,3,3,10,9,16,16,220.txt
0,16,0,6,0,3,10,0,17,27,0,25,13,13,16,6,2,25,8,2,2,18,16,26,10,24,30,3,5,26,2,2,2,21,2,11,12,8,15,30,2,1,15,9,8,14,11,20,10,9,17,17,10,10,222.txt
0,0,0,0,0,20,19,0,22,0,0,16,30,27,16,0,9,27,16,24,23,4,6,6,3,7,6,7,3,28,0,24,3,3,0,25,0,0,0,0,3,3,6,6,3,3,3,2,3,3,10,9,16,30,225.txt
0,0,0,0,0,20,19,0,22,0,0,16,30,27,16,0,9,27,16,24,23,4,6,6,3,7,6,7,3,28,0,24,3,3,0,25,23,0,13,6,3,12,6,6,11,3,3,2,3,3,10,9,16,16,227.txt
0,0,0,0,0,20,19,0,22,0,0,16,30,27,16,0,9,27,16,24,23,4,6,6,3,7,6,7,3,28,0,24,3,3,0,25,23,0,13,6,3,12,6,6,11,0,3,2,0,0,1,1,1,16,229.txt
0,0,0,0,0,26,0,0,23,0,0,0,0,28,16,0,9,27,18,24,12,0,27,19,0,9,9,11,0,10,0,0,0,11,0,25,22,0,14,5,0,15,21,23,17,5,0,0,5,5,0,0,22,20,231.txt
29,13,26,1,4,1,3,3,5,1,27,5,5,3,3,10,10,4,25,3,5,12,1,24,4,8,8,16,7,14,11,8,6,27,5,1,9,3,3,16,20,4,8,27,4,24,17,8,6,27,1,1,1,16,236.txt
0,0,0,0,0,20,19,0,22,0,0,16,30,27,16,0,9,27,16,24,23,4,6,6,3,7,6,7,3,28,22,24,3,3,27,23,23,7,13,6,3,12,19,14,11,3,3,2,3,3,6,7,9,9,241.txt
0,0,0,0,0,26,19,0,23,0,0,0,0,28,16,0,9,27,16,24,12,6,27,19,14,9,9,11,3,10,0,24,13,11,0,25,23,0,13,6,0,11,3,13,7,20,0,0,21,23,19,20,28,16,242.txt
0,0,0,0,0,20,19,0,22,0,0,16,30,27,16,0,9,27,16,24,10,6,6,20,12,7,6,7,3,28,0,24,13,7,0,25,23,0,13,6,0,12,3,12,11,3,12,12,3,3,28,26,7,7,245.txt
0,2,2,6,7,30,10,26,2,27,16,25,13,13,24,17,2,2,19,2,2,2,2,27,2,21,28,3,21,26,22,0,2,21,27,23,17,7,6,6,2,30,13,9,9,2,12,27,2,2,13,24,13,13,247.txt
0,16,2,6,7,3,19,2,22,27,14,12,12,12,2,0,9,27,8,24,27,25,6,2,3,7,6,7,2,28,5,5,3,3,4,12,13,11,10,26,3,13,18,14,8,3,4,25,3,3,6,7,9,9,249.txt
0,0,0,0,0,20,4,0,7,0,0,16,30,27,16,6,7,7,8,10,27,25,5,26,24,4,30,4,5,4,22,24,21,18,27,23,23,7,13,6,30,30,5,14,14,13,4,25,9,8,6,7,11,11,250.txt
0,0,0,0,0,20,19,0,22,0,0,16,30,27,16,0,9,27,16,24,23,4,6,6,3,7,6,7,3,28,0,24,3,3,0,25,23,0,13,6,3,12,6,6,11,3,3,2,3,3,6,7,7,7,252.txt
27,15,6,1,25,1,14,1,6,3,27,4,6,3,3,11,11,29,12,20,5,11,19,12,18,10,17,27,30,8,7,27,6,9,22,1,9,30,30,16,24,23,28,28,22,24,20,29,29,6,13,28,30,23,256.txt
0,0,0,0,0,20,19,0,22,0,0,16,30,27,16,0,9,28,16,24,23,4,6,6,3,7,6,7,3,28,0,24,3,3,0,25,23,0,13,6,3,12,6,6,11,5,3,2,5,5,1,1,1,16,258.txt
0,0,0,0,0,20,19,0,22,0,0,16,30,27,16,0,9,27,16,24,23,4,6,6,3,7,6,7,3,28,0,24,3,3,0,25,23,0,13,6,3,12,6,6,11,3,3,2,3,3,18,18,26,16,260.txt
0,0,0,0,0,20,19,0,22,0,0,16,30,27,19,0,9,27,16,26,23,4,6,20,3,7,6,7,3,28,2,2,13,3,2,14,15,13,2,23,0,12,21,23,11,0,8,7,0,0,17,5,5,5,261.txt
0,0,0,0,0,26,19,0,0,0,0,0,0,29,16,0,9,27,16,26,0,23,25,0,13,26,27,0,3,25,0,24,11,11,0,25,22,0,14,5,7,11,14,9,7,22,13,21,29,26,19,20,28,1,264.txt
0,0,0,0,0,20,19,0,22,0,0,16,30,27,16,0,9,27,16,24,23,4,6,6,3,7,6,7,3,28,0,24,3,3,0,25,18,0,5,5,3,12,6,6,11,0,3,2,0,0,10,9,16,16,269.txt
0,0,0,0,0,26,20,0,23,0,0,21,0,28,16,0,9,27,18,24,12,6,27,18,14,22,23,26,0,18,0,24,16,11,0,25,23,0,13,6,7,15,14,12,17,17,28,28,13,16,12,9,17,29,272.txt
0,0,0,0,0,20,19,0,22,0,0,16,30,27,16,0,9,27,1,24,1,27,6,24,4,7,6,7,3,28,0,24,3,3,0,25,23,0,13,6,3,12,6,6,11,20,3,2,20,18,10,9,16,16,274.txt
0,0,0,0,0,20,19,0,22,0,0,16,30,27,16,0,9,27,16,24,23,20,6,17,3,7,6,7,3,28,5,5,3,3,4,13,14,8,10,30,3,28,6,6,11,5,3,2,5,5,22,28,22,20,276.txt
0,0,0,0,0,20,19,0,22,0,0,16,30,27,17,0,9,27,4,27,5,1,6,12,17,7,6,7,3,28,0,24,3,3,0,25,23,0,13,6,3,12,6,6,11,20,3,2,21,19,13,30,22,20,280.txt
0,0,0,0,0,26,19,0,23,0,0,0,0,28,16,0,9,27,16,24,10,6,27,19,12,9,9,11,3,10,0,24,13,7,0,25,18,0,5,5,0,26,21,23,7,3,0,0,3,3,10,9,16,16,282.txt
0,0,0,0,0,20,19,0,22,0,0,16,30,27,16,0,9,27,16,24,23,4,6,6,3,7,6,7,3,28,5,5,3,3,4,12,13,9,10,24,3,12,6,6,11,3,3,2,3,3,6,7,24,24,283.txt
0,0,0,0,0,20,19,0,22,0,0,16,30,27,16,0,9,27,16,24,23,4,6,6,3,7,6,7,3,28,22,24,3,3,27,23,23,7,13,6,3,12,5,14,11,3,3,2,3,3,21,28,9,9,284.txt
0,0,0,0,0,20,19,0,22,0,0,16,30,27,16,0,9,27,16,24,23,4,6,6,3,7,6,7,3,28,22,24,3,3,27,23,23,7,13,6,3,12,5,4,11,3,3,22,3,3,30,28,9,9,286.txt
0,0,0,0,0,20,19,0,22,0,0,16,30,27,16,0,9,27,16,24,23,4,6,6,3,7,6,7,3,28,5,5,3,3,4,12,13,11,10,26,3,12,6,6,11,3,3,2,3,3,17,17,22,20,288.txt
0,0,0,0,0,20,19,0,22,0,0,16,30,27,16,0,9,27,16,24,12,6,27,20,14,9,9,11,3,10,22,24,13,0,27,23,23,7,13,6,0,29,3,12,1,3,12,27,3,3,24,24,13,13,290.txt
0,0,0,0,0,20,19,0,22,0,0,16,30,27,16,0,9,27,16,24,23,4,6,6,3,7,6,7,3,28,5,5,3,3,4,12,13,11,10,26,3,12,19,14,11,3,3,2,3,3,6,7,9,9,293.txt
0,0,0,0,0,20,19,0,22,0,0,16,30,27,16,0,9,28,16,24,23,4,6,6,3,7,6,7,3,28,0,0,3,3,0,25,23,0,6,6,3,12,6,6,11,5,3,22,5,5,17,17,22,20,295.txt
1,25,25,9,18,8,1,1,18,30,19,9,17,8,21,4,27,13,30,18,15,8,8,16,21,10,16,5,14,17,29,19,28,25,9,19,5,18,16,8,11,6,11,19,29,28,23,9,17,16,21,27,30,23,297.txt
0,0,0,0,0,20,19,0,22,0,0,16,30,27,16,0,9,27,16,24,23,4,6,6,3,7,6,7,3,28,0,24,3,3,0,25,23,0,13,6,3,12,6,6,11,3,2,22,3,3,6,7,13,13,300.txt
0,0,0,0,0,20,19,0,22,0,0,16,30,27,16,0,9,27,16,24,23,4,6,6,3,7,6,7,3,28,0,24,3,3,0,25,23,0,13,6,3,12,6,6,11,5,3,2,5,5,1,1,1,16,303.txt
0,0,0,0,1,20,19,0,22,0,4,5,5,3,3,23,23,26,16,9,23,4,18,6,3,8,8,16,7,14,11,9,3,3,6,1,9,3,3,12,3,12,6,6,11,7,2,22,7,10,5,13,0,0,305.txt
0,16,2,6,1,3,19,1,18,26,19,8,17,7,21,10,10,29,16,16,12,6,19,20,0,8,29,14,30,5,7,8,13,11,29,1,9,30,30,16,27,12,3,12,11,20,11,27,26,19,13,24,10,10,307.txt
0,16,0,6,0,3,20,25,23,27,15,26,12,12,16,0,9,27,18,24,10,6,27,25,12,9,9,11,28,10,16,22,13,7,16,12,13,9,15,24,27,0,3,12,0,3,11,27,3,3,6,7,24,24,311.txt
0,0,0,0,1,20,19,10,5,0,4,5,5,3,3,10,10,29,4,16,5,1,19,12,17,17,8,16,7,21,7,14,3,3,29,1,9,30,30,9,3,12,6,6,11,20,3,2,20,18,27,5,5,5,313.txt
0,0,0,0,0,20,19,0,22,0,0,16,30,27,16,0,9,27,16,24,23,4,6,19,3,7,6,7,3,28,0,24,16,7,0,25,23,0,13,6,5,12,15,13,11,3,9,11,3,3,6,5,5,5,318.txt
0,0,0,0,0,26,19,0,23,0,0,0,0,28,16,0,9,27,1,24,7,1,27,30,28,9,9,11,3,10,0,24,13,7,0,25,23,0,13,6,0,3,3,13,3,20,11,20,20,18,14,9,19,30,320.txt
1,25,27,9,11,8,15,28,18,6,19,8,17,7,21,18,6,6,24,28,4,27,7,28,26,20,29,14,11,24,6,6,4,4,7,6,21,5,9,18,11,4,4,5,29,30,24,8,20,18,30,26,14,14,322.txt
1,25,27,9,11,8,15,28,18,6,19,8,17,7,21,18,6,6,24,28,4,27,7,28,26,20,29,14,11,24,6,6,4,4,7,6,21,5,9,18,11,4,4,5,29,30,24,8,20,18,30,26,14,14,323.txt
0,15,6,1,25,1,14,1,6,3,8,4,6,3,3,11,11,29,12,20,5,1,19,12,18,10,17,27,10,8,7,27,11,11,22,7,19,30,30,16,7,10,14,9,6,24,1,29,28,6,29,13,6,6,324.txt
0,0,0,0,0,20,19,0,22,0,0,16,30,27,16,0,9,27,16,24,23,4,6,6,3,7,6,7,3,28,5,5,3,3,4,12,13,13,10,28,3,12,6,6,11,3,3,2,3,3,6,7,24,24,326.txt
0,16,0,6,0,3,19,0,22,26,0,12,29,26,16,0,9,27,16,24,23,4,6,6,3,7,6,7,3,28,5,5,3,3,4,12,13,11,10,26,3,12,6,6,11,5,3,5,5,5,7,5,5,5,328.txt
0,0,0,0,0,26,20,0,23,0,0,0,0,28,16,0,9,27,18,24,10,6,27,19,12,9,9,11,28,10,2,7,16,7,18,11,12,10,15,25,5,15,16,12,17,5,11,13,5,5,12,9,17,30,329.txt
0,0,0,0,0,20,19,0,22,0,0,16,30,27,16,0,9,27,16,24,23,4,6,6,3,7,6,7,3,28,0,24,3,3,0,25,23,0,13,6,3,12,6,6,11,24,3,2,28,6,1,1,1,16,333.txt
0,0,0,0,0,20,4,0,17,0,0,16,30,27,16,6,2,25,16,2,12,6,13,19,9,4,30,4,3,4,2,2,2,21,2,11,12,8,15,23,2,12,13,12,11,14,11,13,10,9,20,24,13,13,335.txt
0,0,0,0,0,20,19,0,22,0,0,16,30,27,16,0,9,27,16,24,23,4,6,6,3,7,6,7,3,28,0,24,3,3,0,25,23,0,13,6,3,12,6,6,11,5,3,2,5,5,17,17,22,20,337.txt
0,16,9,6,7,30,10,2,15,26,14,12,12,12,2,17,14,21,19,11,19,16,15,27,8,24,28,3,21,26,13,5,15,20,17,12,13,11,15,29,15,24,18,14,8,13,4,25,9,8,6,7,10,10,341.txt
0,0,0,0,0,20,19,0,22,0,0,16,30,27,16,0,9,27,16,24,23,4,6,6,3,7,6,7,3,28,16,22,3,3,3,12,13,11,2,26,3,12,18,14,11,3,2,22,3,3,21,28,9,9,342.txt
0,0,0,0,0,20,19,0,22,0,0,16,30,27,16,0,9,27,16,24,23,4,6,6,3,7,6,7,3,28,0,24,3,3,0,25,23,0,13,6,3,12,6,6,11,3,6,6,3,3,10,9,16,16,344.txt
0,0,0,0,0,20,19,0,22,0,0,16,30,27,16,0,9,27,16,24,23,4,6,6,3,7,6,7,3,28,0,24,3,3,0,25,23,0,13,6,3,12,6,6,11,3,3,2,3,3,11,10,18,16,347.txt
0,0,0,0,0,20,19,0,22,0,0,16,30,27,16,0,9,27,16,24,23,4,6,6,3,7,6,7,3,28,0,24,3,3,0,25,23,0,13,6,3,12,7,6,11,5,2,22,5,5,17,17,22,20,349.txt
0,0,0,0,0,20,19,0,22,0,0,16,30,27,16,0,9,27,16,24,23,20,6,17,3,7,6,7,3,28,0,24,3,3,0,25,23,0,4,4,3,12,6,6,11,5,3,22,5,5,13,13,21,21,352.txt
0,0,0,0,0,20,19,0,22,0,0,16,30,27,16,0,9,27,16,24,23,4,6,6,3,7,6,7,3,28,0,24,3,3,0,25,23,0,13,6,3,12,6,6,11,3,2,22,3,3,10,9,16,16,354.txt
0,0,0,0,0,20,19,0,22,0,0,16,30,27,16,0,9,27,16,24,23,4,6,6,3,7,6,7,3,28,0,24,3,3,0,25,23,0,13,6,3,12,6,6,11,3,3,2,3,3,17,17,0,0,358.txt
0,0,0,0,0,26,19,0,23,0,0,0,0,28,16,0,9,27,16,24,10,6,27,19,12,9,9,11,3,10,5,5,13,7,4,11,12,8,10,29,0,12,21,23,11,3,0,0,3,3,14,9,19,30,360.txt
0,0,0,0,0,20,19,0,22,0,0,16,30,27,16,0,9,27,16,24,23,4,6,6,3,7,6,7,3,28,0,24,3,3,0,25,23,0,13,6,3,12,6,6,11,3,2,22,3,3,6,7,22,20,362.txt
0,0,0,0,0,20,19,0,22,0,0,16,30,27,16,0,9,27,16,24,23,4,6,6,3,7,6,7,3,28,19,7,3,3,18,29,15,13,15,29,3,12,6,6,11,3,3,5,3,3,6,7,7,7,364.txt
0,0,0,0,0,26,19,0,23,0,0,0,0,0,19,0,9,27,16,7,0,0,0,19,0,0,0,0,3,0,2,2,16,11,18,11,12,8,15,30,5,12,21,23,11,0,11,20,0,0,17,17,22,20,365.txt
0,0,0,0,0,20,19,0,22,0,0,16,30,27,16,0,9,27,16,24,10,6,27,19,12,23,24,19,3,19,5,5,13,7,4,12,13,9,10,24,0,11,3,13,7,3,9,11,3,3,25,26,11,11,368.txt
0,0,0,0,0,20,19,0,22,0,0,16,30,27,16,0,9,27,16,24,23,4,6,6,3,7,6,7,3,28,0,24,3,3,0,25,23,0,13,6,3,12,6,6,11,3,3,2,3,3,10,9,16,16,369.txt
0,0,0,0,0,20,19,0,22,0,0,16,30,27,16,0,9,27,16,24,23,4,6,6,3,7,6,7,3,28,0,24,3,3,0,25,23,0,13,6,3,12,6,6,11,5,3,2,5,5,6,7,22,20,371.txt
1,15,19,9,25,8,15,30,18,22,19,8,17,7,21,1,1,1,24,12,4,9,21,16,26,20,29,5,22,24,6,6,8,25,20,6,5,5,9,8,11,5,11,17,29,15,24,8,16,16,30,27,14,14,375.txt
0,0,0,0,0,20,19,0,22,0,0,16,30,27,17,0,9,27,16,27,23,4,6,6,3,7,6,7,3,28,0,24,3,3,0,25,23,0,13,6,3,12,7,6,11,3,29,5,3,3,7,8,22,20,377.txt
0,0,0,0,0,20,19,0,22,0,0,16,30,27,16,0,9,27,16,24,23,4,6,20,3,7,6,7,3,28,0,24,13,3,0,25,23,0,13,6,0,12,3,12,11,7,11,13,7,10,1,1,1,16,380.txt
1,13,26,9,18,8,1,1,20,1,22,30,21,19,5,30,29,13,24,29,6,27,28,15,20,10,18,28,18,8,27,18,25,25,7,4,27,23,24,9,1,6,10,18,10,9,21,18,12,30,25,19,30,23,382.txt
1,15,19,1,25,1,14,6,6,3,24,30,21,3,3,11,11,29,12,20,16,11,19,11,18,10,17,27,10,8,7,27,16,9,22,27,19,30,30,16,7,23,14,3,22,21,1,29,23,20,13,24,30,23,385.txt
27,24,25,9,18,8,1,30,19,18,24,4,6,17,13,4,27,13,21,29,15,8,26,15,26,28,17,27,19,30,26,21,30,15,13,17,5,23,29,14,18,7,26,30,4,30,7,15,13,16,25,27,30,23,386.txt
0,0,0,0,0,20,19,0,22,0,0,16,30,27,16,0,9,27,16,24,23,4,6,19,3,7,6,7,3,28,0,24,3,3,0,25,23,0,13,6,3,12,0,0,11,3,0,0,3,3,6,5,5,5,387.txt
0,0,0,0,0,20,19,0,22,0,0,16,30,27,16,0,9,27,16,24,23,4,6,6,3,7,6,7,3,28,22,24,3,3,27,23,23,7,13,6,3,12,18,15,11,3,6,5,3,3,22,28,24,24,391.txt
0,0,0,0,0,20,19,0,22,0,0,16,30,27,16,0,9,27,16,24,23,4,6,6,3,7,6,7,3,28,21,0,3,3,26,22,23,6,13,6,3,12,17,4,11,5,3,22,5,5,17,17,21,21,394.txt
0,16,2,6,7,3,19,2,22,26,14,12,29,26,2,0,9,27,16,24,23,4,6,6,3,7,6,7,3,28,2,2,3,3,2,13,14,8,15,30,3,12,17,14,11,5,3,2,5,5,17,17,22,20,395.txt
0,0,0,0,0,26,20,0,23,0,0,0,0,28,16,0,9,27,18,24,0,0,27,19,0,9,9,11,0,10,0,24,16,11,0,25,23,0,13,6,5,0,21,23,0,11,0,0,24,24,17,17,22,20,397.txt
27,15,1,1,25,1,14,11,5,20,8,4,6,3,3,10,10,29,12,19,5,1,19,12,18,10,7,8,10,8,7,13,6,28,29,1,9,30,30,16,20,21,24,28,27,20,11,13,20,18,13,24,0,0,400.txt
0,15,19,9,25,1,14,4,26,14,27,5,5,4,22,1,1,1,1,22,5,27,1,12,17,8,12,12,10,15,11,16,2,9,12,1,9,3,3,13,2,4,13,21,29,1,12,27,22,20,27,24,13,13,402.txt
0,0,0,0,0,20,19,0,22,0,0,16,30,27,16,0,9,27,16,24,23,4,6,6,3,7,6,7,3,28,0,24,3,3,0,25,23,0,13,6,3,12,6,6,11,3,3,22,3,3,27,19,0,0,405.txt
0,0,0,0,0,20,20,0,22,0,0,16,30,27,16,0,9,27,18,24,23,4,6,6,3,7,6,7,0,28,0,24,3,3,0,25,23,0,13,6,3,15,3,12,17,20,8,7,26,22,30,29,9,9,407.txt
27,29,23,8,3,5,1,12,26,15,29,14,14,25,22,11,11,13,26,29,30,26,9,10,1,18,14,20,22,22,26,16,1,17,12,9,30,24,29,14,24,8,22,25,1,20,15,29,26,23,24,28,27,23,411.txt
0,0,0,0,0,20,19,0,22,0,0,16,30,27,16,0,9,27,16,24,23,4,6,6,3,7,6,7,3,28,0,24,3,3,0,25,23,0,13,6,3,12,6,6,11,5,29,5,5,5,10,9,16,16,413.txt
0,0,0,0,0,20,19,0,22,0,0,16,30,27,16,0,9,28,16,24,23,4,6,6,3,7,6,7,3,28,0,24,3,3,0,25,23,0,13,6,3,12,6,6,11,5,3,2,5,5,17,17,9,9,416.txt
27,15,1,25,25,16,14,12,20,25,24,30,21,18,11,4,27,29,12,20,30,26,19,10,1,10,22,30,10,8,7,19,1,17,25,21,4,30,30,16,21,19,30,28,28,21,28,12,23,22,25,24,24,24,417.txt
0,0,0,0,0,20,19,0,22,0,0,16,30,27,16,0,9,27,16,24,23,4,6,6,3,7,6,7,3,28,0,24,3,3,0,25,23,0,13,6,3,12,6,6,11,3,3,2,3,3,6,7,24,24,419.txt
0,0,0,0,25,28,20,11,6,0,27,4,6,10,23,26,22,29,18,17,12,6,19,29,13,14,22,29,13,8,7,13,12,11,29,1,19,30,30,16,7,23,14,9,26,7,12,27,7,10,21,24,22,20,421.txt
0,0,0,0,0,26,19,0,23,0,0,0,0,28,16,0,9,27,16,24,12,6,27,19,14,9,9,11,3,10,2,25,16,11,18,11,12,12,15,29,7,12,14,12,11,20,11,13,20,18,12,9,17,30,423.txt
0,0,0,0,0,20,19,0,22,0,0,16,30,27,16,0,9,27,16,24,23,4,6,6,3,7,6,7,3,28,0,24,3,3,0,25,23,0,13,6,3,4,2,6,4,5,2,22,5,5,13,29,22,20,425.txt
0,0,0,0,0,26,20,0,23,0,0,0,0,28,16,0,9,27,16,23,12,7,27,19,14,9,9,11,0,10,25,24,13,0,0,25,0,0,0,0,0,3,3,13,3,3,11,20,3,3,10,9,16,30,427.txt
0,0,0,0,0,26,19,0,23,0,0,0,0,28,16,0,9,27,16,23,12,7,27,19,13,9,9,11,3,10,25,24,13,0,0,25,23,0,13,6,0,12,3,9,11,24,11,20,28,6,6,7,0,0,430.txt
0,0,0,0,0,20,22,0,22,0,0,16,30,27,19,0,9,27,0,27,12,7,25,25,13,26,27,0,28,25,19,26,0,11,18,29,15,13,15,29,0,0,3,12,0,4,12,27,4,4,11,10,18,1,434.txt
0,0,0,0,0,20,19,0,22,0,0,16,30,27,16,0,9,27,30,24,5,27,6,13,19,7,6,7,3,28,16,22,13,7,16,12,13,9,15,24,0,12,3,8,11,28,21,10,13,30,25,26,30,23,436.txt
0,0,0,0,0,20,19,0,22,0,0,16,30,27,16,0,9,27,16,24,23,4,6,19,3,7,6,7,3,28,22,24,16,3,27,23,23,7,13,6,26,12,15,13,11,4,11,13,4,4,6,7,13,13,439.txt
0,0,0,0,0,20,19,0,22,0,0,16,30,27,16,0,9,27,16,24,23,4,6,6,3,7,6,7,3,28,5,5,3,3,16,12,13,11,15,26,3,12,19,14,11,3,3,2,3,3,6,7,9,9,444.txt
0,16,2,6,7,3,10,26,14,26,14,12,12,12,14,13,12,20,16,11,23,4,13,6,8,4,28,4,3,27,16,22,21,18,16,12,13,11,15,26,30,12,5,14,11,13,3,2,9,8,27,28,9,9,447.txt
0,16,2,6,7,3,19,2,22,27,14,12,12,12,2,0,9,27,16,24,23,4,6,6,3,7,6,7,3,28,5,5,3,3,4,12,13,11,10,26,3,24,19,14,8,3,4,25,3,3,6,7,9,9,449.txt
0,0,0,0,0,20,19,0,22,0,0,16,30,27,16,0,9,27,16,24,23,4,6,6,3,7,6,7,3,28,0,24,3,3,0,25,23,0,13,6,3,12,6,6,11,3,3,2,3,3,10,9,16,16,452.txt
0,0,0,0,0,20,19,0,22,0,0,16,30,27,16,0,9,27,16,24,8,4,6,6,3,7,6,7,3,28,18,2,3,3,18,29,15,12,15,28,3,12,6,2,11,5,2,6,5,5,5,6,22,20,454.txt
0,16,0,6,0,3,19,0,22,27,0,12,13,13,16,0,9,28,16,24,23,4,6,6,3,7,6,7,3,28,2,2,3,3,2,13,14,8,15,30,3,30,5,14,9,5,3,2,5,5,5,6,22,20,456.txt
0,0,0,0,0,20,19,0,22,0,0,16,30,27,16,0,9,28,16,24,23,4,6,6,3,7,6,7,3,28,0,24,3,3,0,25,23,0,13,6,3,12,6,6,11,11,3,2,24,24,11,10,18,16,458.txt
0,0,0,0,0,26,20,0,23,0,0,20,0,28,16,0,9,27,18,24,10,14,27,25,12,9,9,11,0,10,0,24,13,7,0,25,23,0,13,6,0,0,3,12,0,3,12,27,3,3,10,9,16,30,460.txt
0,0,0,0,0,20,19,0,22,0,0,16,30,27,16,0,9,27,16,24,23,4,6,6,3,7,6,7,3,28,0,24,3,3,0,25,23,0,13,6,3,12,6,6,11,28,3,2,14,12,6,7,24,24,463.txt
0,0,0,0,0,20,19,0,22,0,0,16,30,27,16,0,9,27,16,24,23,4,6,6,3,7,6,7,3,28,0,24,3,3,0,25,23,0,13,6,3,12,6,6,11,5,2,22,5,5,6,7,21,21,465.txt
0,0,0,0,0,26,19,0,23,0,0,0,0,0,16,0,9,27,16,7,0,0,0,20,0,0,0,0,3,0,5,5,13,0,4,13,14,8,10,30,0,12,3,13,11,7,12,27,7,10,13,24,13,13,469.txt
1,13,26,17,12,5,14,1,18,22,19,8,17,7,21,10,10,4,25,16,3,3,4,12,17,10,29,14,16,24,10,8,5,9,29,18,5,20,29,16,11,2,12,20,22,21,20,29,26,19,21,30,30,23,472.txt
0,0,0,0,0,20,20,0,22,0,0,16,30,27,16,0,9,27,18,24,10,6,6,25,12,7,6,7,28,28,5,5,13,7,4,12,13,11,10,26,0,0,3,13,0,3,25,20,3,3,6,7,7,7,473.txt
0,0,0,0,0,26,0,0,23,0,0,0,0,0,19,0,9,0,16,7,0,0,0,19,0,0,0,0,28,0,2,2,12,0,2,11,12,8,15,30,26,12,15,9,11,0,11,20,0,0,17,17,10,10,475.txt
0,0,0,0,0,20,19,0,22,0,0,16,30,27,17,0,9,27,16,7,23,4,6,6,3,7,6,7,3,28,0,24,3,3,0,25,23,0,13,6,3,12,6,6,11,7,3,2,7,10,1,1,1,16,477.txt
0,0,0,0,0,20,19,0,22,0,0,16,30,27,16,0,9,27,16,24,23,4,6,6,3,7,6,7,3,28,16,22,3,3,16,12,13,13,15,28,3,12,6,6,11,3,3,2,3,3,10,9,16,1,479.txt
0,0,0,0,0,20,19,0,22,0,0,16,30,27,16,0,9,27,16,24,8,4,6,6,3,7,6,7,3,28,0,24,3,3,0,25,23,0,13,6,3,12,7,7,11,3,29,5,3,3,10,9,16,16,481.txt
0,0,0,0,0,20,19,0,22,0,0,16,30,27,16,0,9,27,16,24,10,6,6,20,12,7,6,7,3,28,0,24,16,7,0,25,23,0,13,6,7,12,15,13,11,3,11,13,3,3,27,24,0,0,485.txt
0,0,0,0,0,20,19,0,22,0,0,16,30,27,16,0,9,27,16,24,23,4,6,6,3,7,6,7,3,28,0,24,3,3,0,25,23,0,13,6,3,12,6,6,11,5,3,2,5,5,1,1,1,16,487.txt
0,0,0,0,0,20,4,0,14,0,0,16,30,27,16,17,12,20,16,11,23,4,15,6,8,21,28,17,3,26,22,24,21,18,27,23,23,7,13,6,15,30,18,14,14,13,3,2,9,8,6,7,22,20,488.txt
0,0,0,0,0,20,19,0,22,0,0,16,30,27,16,0,9,27,16,24,23,4,6,6,3,7,6,7,3,28,0,24,3,3,0,25,23,0,13,6,3,12,6,6,11,3,3,2,3,3,10,9,16,16,491.txt
0,0,0,0,0,20,19,0,22,0,0,16,30,27,16,0,9,28,16,24,0,0,27,0,0,9,9,11,3,10,0,24,0,0,0,25,23,0,13,6,0,12,3,9,11,0,11,13,0,0,17,17,0,0,492.txt
0,0,0,0,0,20,19,0,22,0,0,16,30,27,16,0,9,28,16,24,0,7,6,20,13,7,6,7,3,28,22,0,0,0,27,23,23,7,13,6,0,12,3,9,11,0,25,27,0,0,17,17,21,21,494.txt
0,6,2,6,7,30,10,2,7,27,16,25,12,12,2,14,7,7,20,10,27,25,5,2,24,2,2,2,2,2,23,24,15,20,26,22,23,15,4,4,30,24,19,24,15,13,4,4,9,8,27,30,8,8,496.txt
0,0,0,0,0,26,19,0,23,0,0,0,0,28,16,0,9,27,16,24,0,0,27,19,0,9,9,11,3,10,5,5,16,0,4,11,12,8,10,28,7,3,14,13,3,3,8,7,3,3,14,9,19,1,498.txt
0,0,0,0,0,26,19,0,23,0,0,0,0,0,16,0,9,27,16,27,12,0,0,20,0,0,0,0,3,0,0,24,16,0,0,25,23,0,13,6,7,12,14,9,11,5,12,20,5,5,27,13,22,20,500.txt
0,0,0,0,0,20,19,0,22,0,0,16,30,27,16,0,9,27,16,27,23,4,6,6,3,7,6,7,3,28,5,5,3,3,4,13,14,8,10,30,3,12,6,6,11,3,3,2,3,3,27,27,22,20,502.txt
0,0,0,0,0,20,19,0,22,0,0,16,30,27,16,0,9,27,16,24,8,4,6,6,3,7,6,7,3,28,0,24,3,3,0,25,23,0,13,6,3,9,7,7,4,3,30,5,3,3,1,1,1,15,503.txt
0,0,0,0,4,20,19,0,22,0,4,5,5,3,3,10,10,4,4,20,5,1,1,12,17,17,8,16,16,14,1,14,3,3,29,1,9,3,3,16,3,12,6,6,11,24,3,2,6,27,5,6,22,20,505.txt
0,0,0,0,0,26,19,0,23,0,0,20,0,28,16,0,9,27,16,24,12,6,27,20,14,9,9,11,3,10,2,2,13,11,18,11,12,13,15,28,0,12,3,12,11,3,11,27,3,3,10,9,16,30,507.txt
0,0,0,0,0,20,19,0,22,0,0,16,30,27,16,0,9,27,16,24,23,4,6,6,3,7,6,7,3,28,16,22,3,3,16,12,13,11,15,26,3,12,6,6,11,30,4,6,14,15,21,26,9,9,510.txt
0,0,0,0,0,26,20,0,23,0,0,18,0,28,16,0,9,27,16,24,11,23,27,29,13,25,23,26,29,18,18,25,12,11,18,14,15,12,15,27,8,12,16,12,11,30,12,12,15,29,23,24,13,13,513.txt
0,0,0,0,0,20,19,0,22,0,0,16,30,27,16,0,9,27,16,7,23,4,6,6,3,7,6,7,3,28,0,24,3,3,0,25,23,0,13,6,3,12,6,6,11,0,3,2,0,0,11,10,18,16,516.txt
0,0,0,0,0,20,19,0,22,0,0,16,30,27,16,0,9,27,16,24,23,4,6,6,3,7,6,7,3,28,21,24,3,3,26,22,23,6,13,6,3,12,17,14,11,5,2,22,5,5,30,28,10,10,518.txt
27,15,19,1,25,5,1,12,4,14,6,30,4,21,4,4,27,11,3,1,30,26,9,1,20,5,4,6,18,7,10,29,1,12,21,1,27,25,25,3,29,6,22,25,30,27,19,10,13,16,27,22,23,23,521.txt
27,14,19,25,25,9,1,1,6,3,27,30,21,18,11,4,27,29,12,20,6,11,19,15,18,10,17,27,30,8,7,19,25,25,25,16,7,30,30,16,24,23,28,28,26,22,21,29,29,26,13,28,27,23,524.txt
0,0,0,0,0,20,19,0,22,0,0,16,30,27,16,0,9,27,16,24,23,20,6,17,3,7,6,7,3,28,0,24,3,3,0,25,23,0,4,4,3,4,6,6,5,5,3,2,5,5,1,1,1,16,527.txt
0,0,0,0,0,20,19,0,22,0,0,16,30,27,16,0,9,27,16,24,23,4,6,6,3,7,6,7,3,28,0,24,3,3,0,25,23,0,13,6,3,12,6,6,11,5,3,2,5,5,1,1,1,16,529.txt
0,0,0,0,0,20,19,0,22,0,0,16,30,27,16,0,9,27,16,24,23,4,6,6,3,7,6,7,3,28,0,24,3,3,0,25,23,0,13,6,3,12,6,6,11,3,3,2,3,3,27,28,9,9,530.txt
0,0,0,0,0,20,19,0,22,0,0,16,30,27,16,0,9,27,16,24,23,4,6,6,3,7,6,7,3,28,0,24,3,3,0,25,23,0,13,6,3,12,6,6,11,3,3,22,3,3,10,9,16,16,532.txt
0,0,0,0,0,20,19,0,22,0,0,16,30,27,16,0,9,27,16,24,23,4,6,6,3,7,6,7,3,28,21,24,3,3,26,22,23,6,13,6,3,12,17,14,11,3,3,2,3,3,5,6,22,20,534.txt
0,0,0,0,0,20,19,0,22,0,0,16,30,27,16,0,9,27,16,24,23,4,6,6,3,7,6,7,3,28,0,24,3,3,0,25,23,0,13,6,3,12,6,6,11,3,3,2,3,3,10,9,16,16,536.txt
0,0,0,0,0,20,19,0,22,0,0,16,30,27,16,0,9,27,16,24,23,4,6,6,3,7,6,7,3,28,0,24,3,3,0,25,23,0,13,6,3,12,6,6,11,3,3,2,3,3,10,9,16,17,538.txt
0,0,0,0,0,20,19,0,22,0,0,16,30,27,16,0,9,27,16,24,8,4,6,6,3,7,6,7,3,28,0,24,3,3,0,25,23,0,13,6,3,12,7,7,11,3,5,5,3,3,10,9,16,17,541.txt
0,0,0,0,0,20,19,0,22,0,0,16,30,27,16,0,9,27,16,24,23,4,6,6,3,7,6,7,3,28,0,24,3,3,0,25,23,0,13,6,3,12,6,6,11,3,3,2,3,3,10,9,16,16,543.txt
0,0,0,0,0,20,19,0,22,0,0,16,30,27,16,0,9,27,16,24,23,4,6,6,3,7,6,7,3,28,0,24,3,3,0,25,23,0,13,6,3,12,6,6,11,5,3,2,5,5,17,17,22,20,545.txt
0,16,0,6,0,3,19,0,22,27,0,12,12,12,16,0,9,27,29,24,21,26,6,15,16,7,6,7,3,28,23,24,3,3,28,24,23,15,13,6,3,12,19,14,11,30,1,9,17,30,25,29,30,23,549.txt
0,0,0,0,0,20,19,0,22,0,0,16,30,27,16,0,9,27,16,24,23,4,6,6,3,7,6,7,3,28,18,25,3,3,18,13,14,13,15,29,3,12,6,6,11,3,3,2,3,3,17,17,22,20,551.txt
0,0,0,0,0,20,19,0,22,0,0,16,30,27,17,0,9,27,16,27,23,4,6,6,3,7,6,7,3,28,0,24,3,3,0,25,17,0,13,6,3,12,6,6,11,5,3,2,5,5,1,1,1,15,554.txt
0,0,0,0,0,20,19,0,22,0,0,16,30,27,16,0,9,27,16,24,23,4,6,6,3,7,6,7,3,28,0,24,3,3,0,25,23,0,4,4,3,12,6,6,11,5,3,2,5,5,21,28,22,20,557.txt
0,0,0,0,0,20,19,0,22,0,0,16,30,27,16,0,9,27,16,24,23,4,6,6,3,7,6,7,3,28,0,24,3,3,0,25,23,0,13,6,3,12,6,6,11,5,2,5,5,5,7,8,0,0,558.txt
0,0,0,0,0,20,19,0,22,0,0,16,30,27,16,0,9,27,16,24,12,0,27,20,0,9,9,11,3,10,19,7,0,11,2,29,15,13,15,23,0,12,3,9,11,0,12,27,0,0,13,19,22,20,561.txt
1,25,23,8,28,5,1,1,18,22,13,8,10,7,9,11,19,11,25,12,3,3,12,13,17,6,29,14,24,5,10,16,1,9,24,9,30,25,29,18,11,13,10,18,15,21,24,8,26,23,21,28,30,23,564.txt
0,16,0,6,0,30,10,26,7,26,14,12,12,12,16,17,7,7,19,10,27,25,5,27,24,21,28,3,21,27,16,22,21,18,16,12,13,11,15,26,30,30,5,14,8,13,3,2,8,7,25,28,10,10,566.txt
0,16,0,6,0,3,19,0,22,26,0,25,16,26,16,0,9,27,16,24,23,4,6,20,3,7,6,7,3,28,5,5,13,3,4,13,14,8,10,29,0,12,3,13,11,5,25,20,5,5,17,17,21,21,568.txt
0,0,0,0,0,20,19,0,22,0,0,16,30,27,16,0,9,27,16,24,23,4,6,6,3,7,6,7,3,28,0,24,3,3,0,25,23,0,13,6,3,12,6,6,11,3,3,2,3,3,7,8,13,13,572.txt
0,0,0,0,0,20,19,0,22,0,0,16,30,27,16,0,9,27,16,24,23,4,6,6,3,7,6,7,3,28,0,24,3,3,0,0,23,0,13,6,3,10,6,6,6,3,3,2,3,3,1,1,1,16,574.txt
0,0,0,0,0,26,20,0,23,0,0,21,0,28,16,0,9,27,18,24,10,6,27,25,12,9,9,11,29,10,18,25,13,7,18,30,15,13,15,23,0,0,3,12,0,7,12,27,7,10,12,11,17,1,576.txt
0,0,0,0,0,20,19,0,22,0,0,16,30,27,16,0,9,27,16,24,23,4,6,19,3,7,6,7,3,28,0,24,16,11,0,25,23,0,13,6,7,12,14,3,11,24,11,13,28,27,1,1,1,16,578.txt
0,13,26,9,4,8,8,8,5,1,4,5,5,3,3,11,17,4,4,3,5,1,4,30,28,8,8,16,14,14,1,16,3,3,12,1,9,20,29,14,3,4,6,6,4,24,2,22,28,27,10,9,16,16,580.txt
0,0,0,0,0,26,19,0,23,0,0,20,0,0,16,0,9,27,16,7,0,6,0,19,0,0,0,0,3,0,2,2,13,11,2,11,12,13,15,23,0,12,3,9,11,7,11,13,7,10,29,13,22,20,582.txt
0,0,0,0,0,26,19,0,23,0,0,0,0,28,16,0,9,27,16,24,10,6,27,19,12,23,24,26,3,18,16,23,16,7,17,12,13,9,15,24,5,11,14,13,7,17,28,20,16,29,12,9,17,28,584.txt
21,15,1,25,1,5,1,12,5,3,29,24,18,18,5,23,23,26,11,9,0,7,18,21,13,17,14,20,7,22,7,13,6,9,29,4,7,30,30,17,24,19,28,28,28,7,12,27,7,10,25,24,13,13,586.txt
0,0,0,0,0,20,19,0,22,0,0,16,30,27,16,0,9,27,16,24,23,4,6,6,3,7,6,7,3,28,0,24,3,3,0,25,23,0,13,6,3,12,6,6,11,5,3,2,5,5,6,7,22,20,588.txt
0,0,0,0,0,20,19,0,22,0,0,16,30,27,16,0,9,27,16,24,10,6,27,20,12,22,23,19,3,19,16,22,13,7,16,12,13,10,15,25,0,12,3,12,11,3,28,27,3,3,10,9,16,29,591.txt
0,0,0,0,0,20,19,0,22,0,0,16,30,27,16,0,9,27,16,24,23,4,6,6,3,7,6,7,3,28,0,24,3,3,0,25,23,0,13,6,3,12,6,6,11,5,3,22,5,5,6,7,22,20,594.txt
0,0,0,0,0,20,19,0,22,0,0,16,30,27,16,0,9,27,25,24,5,1,6,24,4,7,6,7,3,28,0,24,16,7,0,25,23,0,13,6,8,12,16,3,11,24,11,13,29,6,11,10,18,16,596.txt
0,0,0,0,0,24,20,0,23,0,0,0,0,28,16,19,24,16,1,0,16,8,11,22,23,25,23,26,29,18,17,23,12,5,17,26,13,10,15,25,7,0,14,10,0,30,28,12,13,29,12,21,17,29,598.txt
0,0,0,0,0,20,19,0,22,0,0,16,30,27,16,0,9,27,16,24,23,4,6,6,3,7,6,7,3,28,0,24,3,3,0,25,23,0,13,6,3,12,6,6,11,0,3,2,0,0,10,9,16,16,600.txt
0,0,0,0,0,20,19,0,22,0,0,16,30,27,16,0,9,27,16,24,23,4,6,20,3,7,6,7,3,28,16,22,13,3,16,12,13,11,15,26,0,12,3,12,11,30,11,27,15,30,12,9,17,29,603.txt
0,0,0,0,0,20,19,0,22,0,0,16,30,27,17,0,9,27,16,27,23,4,6,6,3,7,6,7,3,28,0,24,3,3,0,25,17,0,13,6,3,12,6,6,11,5,3,22,5,5,21,5,5,5,604.txt
0,0,0,0,0,20,19,0,22,0,0,16,30,27,17,0,9,27,16,27,23,4,6,6,3,7,6,7,3,6,0,24,3,3,0,0,23,0,13,6,3,10,6,6,6,5,3,2,5,5,17,5,5,5,606.txt
0,0,0,0,0,20,19,0,22,0,0,16,30,27,16,0,9,27,16,24,23,4,6,6,3,7,6,7,3,28,0,24,3,3,0,25,23,0,13,6,3,12,6,6,11,3,3,2,3,3,10,9,16,17,607.txt
0,0,0,0,0,20,19,0,22,0,0,16,30,27,16,0,9,27,16,24,23,4,6,6,3,7,6,7,3,28,0,24,3,3,0,25,23,0,13,6,3,12,6,6,11,5,3,5,5,5,10,9,16,16,613.txt
0,0,0,0,0,20,19,0,22,0,0,16,30,27,16,0,9,27,16,24,12,6,27,19,14,9,9,11,3,10,0,24,16,11,0,25,17,0,13,6,5,12,14,13,11,0,11,20,0,0,10,9,16,17,615.txt
0,0,0,0,0,20,19,0,22,0,0,16,30,27,16,0,9,27,16,24,23,4,6,19,3,7,6,7,3,28,0,24,16,3,0,25,0,0,0,0,5,3,14,3,3,11,11,20,24,24,17,17,0,0,618.txt
0,0,0,0,0,20,19,0,22,0,0,16,30,27,16,0,9,27,16,24,23,4,6,6,3,7,6,7,3,28,0,24,3,3,0,25,23,0,13,6,3,12,6,6,11,3,2,2,3,3,10,9,16,16,621.txt
23,15,5,1,25,15,14,12,6,25,24,11,28,6,6,5,5,5,29,20,30,26,19,15,16,15,17,27,10,8,3,3,6,26,22,27,19,14,12,16,10,23,25,26,2,30,1,23,23,20,11,10,18,1,623.txt
27,15,20,9,25,5,1,1,19,20,27,30,21,18,5,4,27,29,29,29,30,26,19,10,16,10,17,27,22,8,7,19,1,17,8,21,20,30,30,11,24,5,26,28,5,30,21,9,27,20,25,27,27,23,624.txt
0,0,0,0,0,20,19,0,22,0,0,16,30,27,16,0,9,27,1,24,28,27,6,24,23,7,6,7,3,28,0,24,3,3,0,25,23,0,13,6,3,12,6,6,11,30,3,2,17,17,10,9,16,29,627.txt
0,0,0,0,0,20,19,0,22,0,0,16,30,27,16,0,9,27,16,24,23,4,6,6,3,7,6,7,3,28,0,24,3,3,0,25,23,0,13,6,3,10,6,6,6,3,3,2,3,3,17,17,9,9,628.txt
0,0,0,0,0,20,19,0,22,0,0,16,30,27,16,0,9,27,16,24,23,4,6,6,3,7,6,7,3,28,0,24,3,3,0,25,23,0,13,6,3,12,6,6,11,5,3,2,5,5,11,10,18,16,629.txt
15,13,26,25,20,9,14,12,19,20,20,11,28,18,11,5,5,5,23,17,15,8,19,15,20,10,17,27,4,8,6,3,29,4,25,17,4,14,12,22,21,7,4,22,10,30,1,15,13,12,25,27,30,23,631.txt
0,16,2,6,7,10,20,2,22,23,14,23,12,12,2,0,9,27,18,24,10,6,27,29,12,25,23,26,26,18,5,15,13,7,3,12,13,10,11,25,27,0,13,3,0,3,28,12,3,3,25,27,24,24,633.txt
0,0,0,0,0,26,19,0,23,0,0,20,0,28,16,0,9,27,16,24,12,0,27,19,0,9,9,11,3,10,0,24,13,11,0,25,23,0,13,6,0,12,3,9,11,7,11,27,7,10,13,24,0,0,635.txt
0,0,0,0,0,20,19,0,22,0,0,16,30,27,16,0,9,27,16,24,23,4,6,6,3,7,6,7,3,28,0,24,3,3,0,25,23,0,13,6,3,12,6,6,11,5,3,2,5,5,10,9,16,16,637.txt
0,0,0,0,0,22,4,0,7,0,0,0,0,28,16,6,7,7,16,10,10,6,5,19,24,24,30,17,3,27,5,5,2,2,16,12,13,9,15,24,30,25,21,23,14,12,0,0,8,7,6,7,7,7,642.txt
0,0,0,0,0,26,20,0,23,0,0,0,0,28,16,0,9,27,18,24,12,0,27,19,13,9,9,11,28,10,2,7,10,0,2,11,12,8,15,23,5,15,14,12,17,0,11,13,0,0,17,17,0,0,645.txt
1,25,28,17,18,9,1,30,18,18,10,28,9,20,25,11,17,13,14,20,15,8,21,15,20,10,16,5,15,17,26,16,30,25,12,17,28,18,16,8,11,7,11,17,10,9,21,9,30,16,25,23,30,23,647.txt
0,0,0,0,0,20,19,0,22,0,0,16,30,27,16,0,9,27,16,24,23,4,6,6,3,7,6,7,3,28,0,24,3,3,0,25,23,0,13,6,3,12,6,6,11,3,3,2,3,3,1,1,1,16,650.txt
0,0,0,0,0,20,19,0,22,0,0,16,30,27,16,0,9,27,16,27,8,4,6,6,3,7,6,7,3,28,0,0,3,3,0,25,23,0,13,6,3,12,21,23,11,3,0,0,3,3,6,7,7,7,652.txt
0,0,0,0,0,20,19,0,22,0,0,16,30,27,16,0,9,28,16,24,12,0,27,19,0,9,9,11,3,10,5,5,0,0,2,11,12,8,15,30,0,8,21,23,16,24,0,0,29,6,17,17,13,13,654.txt
0,19,0,6,0,30,10,0,21,27,0,26,16,11,16,17,8,8,19,11,19,16,14,27,8,3,28,3,21,3,18,26,15,20,18,14,15,13,15,29,15,29,18,4,1,13,4,25,9,8,27,28,13,13,657.txt
0,0,0,0,0,20,19,0,22,0,0,16,30,27,16,0,9,27,29,24,1,11,6,12,21,7,6,7,3,28,0,24,3,3,0,25,22,0,14,5,3,11,6,6,7,30,1,8,20,18,13,28,27,23,658.txt
0,0,0,0,0,20,19,0,22,0,0,16,30,27,16,0,9,27,16,24,23,4,6,19,3,7,6,7,3,28,0,24,16,3,0,25,23,0,13,6,5,26,21,23,7,3,0,0,3,3,10,9,16,16,662.txt
0,0,0,0,0,20,19,0,22,0,0,16,30,27,16,0,9,27,16,24,23,4,6,6,3,7,6,7,3,28,0,24,3,3,0,25,23,0,13,6,3,12,6,6,11,3,3,2,3,3,10,9,16,17,663.txt
0,0,0,0,0,20,19,0,22,0,0,16,30,27,16,0,9,27,16,24,23,4,6,6,3,7,6,7,3,28,0,24,3,3,0,25,23,0,13,6,3,12,6,6,11,3,3,2,3,3,10,9,16,16,665.txt
0,0,0,0,0,20,19,0,22,0,0,16,30,27,16,0,9,27,16,24,23,4,6,20,3,7,6,7,3,28,0,24,13,3,0,25,23,0,13,6,0,12,3,12,11,0,8,7,0,0,10,9,16,16,669.txt
0,0,0,0,0,20,19,0,22,0,0,16,30,27,16,0,9,27,16,24,23,4,6,6,3,7,6,7,3,28,0,24,3,3,0,25,23,0,13,6,3,12,6,6,11,3,3,2,3,3,10,9,16,16,671.txt
0,0,0,0,0,20,19,0,22,0,0,16,30,27,16,0,9,27,16,24,23,4,6,6,3,7,6,7,3,28,22,24,3,3,27,23,23,7,13,6,3,12,5,14,11,3,3,6,3,3,24,19,7,7,673.txt
0,0,0,0,0,26,19,0,23,0,0,20,0,28,16,0,9,27,16,24,0,0,27,20,13,9,9,11,3,10,0,24,13,11,0,25,23,0,13,6,0,12,3,12,11,7,11,27,7,10,30,24,22,20,675.txt
1,25,25,9,12,8,1,1,18,22,1,8,1,7,1,4,27,4,25,28,4,11,26,12,1,6,16,5,18,17,14,8,6,9,15,17,5,20,29,12,11,5,12,20,4,24,24,29,29,6,24,28,27,23,678.txt
0,0,0,0,0,20,19,0,22,0,0,16,30,27,17,0,9,28,16,27,23,4,6,6,3,7,6,7,3,28,0,0,3,3,0,25,17,0,6,6,3,10,6,6,6,5,3,2,5,5,24,30,0,0,680.txt
0,0,0,0,0,20,19,0,22,0,0,16,30,27,16,0,9,27,16,24,23,4,6,6,3,7,6,7,3,28,0,24,3,3,0,25,23,0,13,6,3,12,6,6,11,0,3,2,0,0,1,1,1,16,683.txt
0,0,0,0,0,26,19,0,23,0,0,0,0,28,16,0,9,27,29,24,7,1,27,15,16,9,9,11,3,10,0,24,13,11,0,25,23,0,13,6,0,12,3,13,11,30,0,0,15,29,6,7,0,0,685.txt
0,0,0,0,0,20,19,0,22,0,0,16,30,27,16,0,9,27,16,24,23,4,6,6,3,7,6,7,3,28,0,24,3,3,0,25,23,0,13,6,3,12,6,6,11,5,3,2,5,5,1,1,1,16,687.txt
0,0,0,0,0,26,19,0,23,0,0,0,0,0,16,0,9,27,16,27,12,0,0,19,0,0,27,0,3,0,0,24,13,11,0,25,23,0,13,6,0,12,3,21,11,3,8,7,3,3,11,10,18,16,689.txt
0,0,0,0,0,20,19,0,22,0,0,16,30,27,16,0,9,27,16,24,23,4,6,6,3,7,6,7,3,28,0,24,3,3,0,25,23,0,13,6,3,12,6,6,11,3,3,6,3,3,22,19,7,7,691.txt
1,13,26,9,12,1,1,1,18,1,19,8,17,7,21,21,19,4,25,29,5,27,4,13,17,11,29,14,22,24,10,28,1,23,23,1,5,25,21,12,11,6,10,18,29,20,21,9,20,18,25,28,30,23,695.txt
0,0,0,0,0,20,19,0,22,0,0,16,30,27,16,0,9,28,16,24,23,4,6,6,3,7,6,7,3,28,22,24,3,3,27,23,23,7,13,6,3,12,5,14,11,5,3,2,5,5,5,6,22,20,696.txt
27,15,1,1,1,1,1,12,5,20,4,5,5,3,3,23,23,26,16,9,12,0,19,21,0,8,8,16,7,14,7,8,13,9,29,1,9,30,30,16,0,2,3,21,27,7,12,27,7,10,29,24,0,0,700.txt
0,0,0,0,0,20,19,0,22,0,0,16,30,27,16,0,9,27,16,24,23,4,6,6,3,7,6,7,3,28,0,24,3,3,0,25,23,0,13,6,3,12,6,6,11,3,2,22,3,3,10,9,16,16,703.txt
1,29,26,17,12,5,15,1,18,4,19,8,17,7,21,18,6,6,29,16,30,26,4,13,21,10,29,14,11,24,6,6,4,4,7,18,27,5,9,16,11,6,4,5,30,30,21,8,26,23,30,30,27,23,705.txt
0,0,0,0,0,20,19,0,22,0,0,16,30,27,17,0,9,27,16,27,23,4,6,6,3,7,6,7,3,28,0,24,3,3,0,25,23,0,13,6,3,12,6,6,11,5,3,2,5,5,1,1,1,16,706.txt
0,16,2,6,6,30,10,2,17,27,14,12,12,12,2,6,8,22,8,11,19,16,14,2,8,2,5,2,2,2,18,25,2,21,18,30,15,12,15,29,15,8,13,9,8,13,12,27,9,8,13,24,10,10,709.txt
0,16,2,6,7,30,10,2,14,27,14,12,12,12,2,6,12,20,8,11,19,17,15,27,8,24,30,3,21,27,5,5,21,18,16,12,13,11,15,26,30,24,19,14,15,13,4,24,9,8,6,7,9,9,711.txt
0,0,0,0,0,20,19,0,22,0,0,16,30,27,16,0,9,27,16,24,23,4,6,6,3,7,6,7,3,28,16,22,3,3,16,12,13,9,15,24,3,12,6,6,11,3,3,2,3,3,6,7,11,11,712.txt
0,0,0,0,0,20,19,0,22,0,0,16,30,27,16,0,9,27,16,24,23,20,6,17,3,7,6,7,3,28,5,5,3,3,4,12,13,9,10,24,3,28,19,24,11,5,2,2,5,5,25,28,22,20,713.txt
0,0,0,0,0,20,19,0,22,0,0,16,30,27,16,0,9,27,1,24,16,27,6,30,28,7,6,7,3,28,0,24,16,7,0,25,0,0,0,0,5,3,21,23,3,1,0,0,20,18,10,9,16,16,716.txt
0,17,2,6,6,3,19,2,22,26,16,25,13,13,2,0,9,28,16,24,23,4,6,6,3,7,6,7,3,28,5,5,3,3,4,29,15,8,10,30,3,10,17,14,6,3,4,24,3,3,13,28,10,10,722.txt
0,0,0,0,0,20,19,0,22,0,0,16,30,27,16,0,9,27,16,24,23,4,6,6,3,7,6,7,3,28,0,24,3,3,0,25,23,0,13,6,3,12,6,6,11,3,3,2,3,3,19,20,28,18,724.txt
0,0,0,0,0,20,19,0,22,0,0,16,30,27,16,0,9,27,16,24,23,4,6,19,3,7,6,7,3,28,5,5,16,3,4,12,13,9,10,24,5,11,21,23,7,3,0,0,3,3,10,9,16,16,727.txt
0,0,0,0,0,20,19,0,22,0,0,16,30,27,16,0,9,27,16,24,8,4,6,6,3,7,6,7,3,28,19,26,3,3,2,14,15,13,15,28,3,12,7,7,11,5,2,22,5,5,22,19,0,0,728.txt
0,0,0,0,0,20,19,0,22,0,0,16,30,27,16,0,9,27,16,24,23,4,6,6,3,7,6,7,3,28,0,24,3,3,0,25,23,0,13,6,3,12,6,6,11,5,3,2,5,5,5,29,0,0,732.txt
0,0,0,0,0,20,19,0,22,0,0,16,30,27,17,0,9,27,16,27,23,4,6,6,3,7,6,7,3,28,0,24,3,3,0,25,23,0,13,6,3,12,6,6,11,5,3,2,5,5,10,9,16,16,734.txt
27,13,26,9,4,8,1,12,5,1,4,5,5,3,3,11,11,13,25,29,5,1,4,12,1,20,8,16,22,21,1,27,5,28,22,1,5,24,26,12,18,12,8,27,11,24,3,2,6,27,24,30,9,9,735.txt
0,16,0,6,0,3,20,26,22,27,14,12,29,11,16,0,9,27,18,24,10,0,27,25,12,9,9,11,28,10,18,2,13,7,2,13,14,13,15,23,27,30,3,12,1,3,12,27,3,3,13,24,22,20,737.txt
0,0,0,0,0,26,19,0,23,0,0,0,0,0,16,0,9,27,16,27,0,0,0,20,0,0,0,0,3,0,0,24,0,0,0,25,17,0,13,6,0,12,3,13,11,0,12,27,0,0,29,24,0,0,738.txt
0,0,0,0,0,26,20,0,23,0,0,0,0,28,16,0,9,27,12,24,5,1,27,12,18,9,9,11,28,10,2,2,16,0,18,11,12,8,15,30,26,15,15,12,17,24,1,23,29,6,6,7,30,23,741.txt
0,16,2,6,5,30,10,25,16,27,14,12,11,11,24,17,13,8,19,11,19,17,14,27,8,24,28,3,21,26,18,25,15,20,18,30,15,17,15,29,15,30,18,14,8,13,4,25,9,8,7,8,10,10,743.txt
0,0,0,0,0,26,19,0,23,0,0,0,0,28,16,0,9,28,16,24,0,23,27,20,13,9,9,11,3,10,18,25,0,11,18,29,15,17,2,29,0,12,3,12,11,20,8,7,20,18,29,24,22,20,747.txt
0,0,0,0,0,20,19,0,22,0,0,16,30,27,16,0,9,27,16,24,23,20,6,17,3,7,6,7,3,28,0,24,3,3,0,25,23,0,4,4,3,28,6,6,11,3,2,2,3,3,25,28,22,20,748.txt
0,0,0,0,0,20,19,0,22,0,0,16,30,27,16,0,9,27,16,24,23,4,6,6,3,7,6,7,3,28,0,24,3,3,0,25,23,0,13,6,3,12,6,6,11,5,3,2,5,5,1,1,1,15,751.txt
22,29,26,1,20,5,1,12,26,14,22,30,21,21,27,4,27,13,30,20,30,26,28,15,27,10,17,27,30,8,9,21,1,13,25,28,25,26,21,16,21,19,22,25,28,18,1,30,13,16,25,23,27,23,755.txt
0,0,0,0,0,20,19,0,22,0,0,16,30,27,16,0,9,27,16,24,23,4,6,6,3,7,6,7,3,28,16,7,3,3,16,12,13,13,15,29,3,12,6,6,11,5,3,5,5,5,7,5,5,5,756.txt
0,15,1,1,1,1,3,3,5,1,4,5,5,3,3,10,10,4,16,3,23,4,4,6,3,17,8,16,8,21,11,10,3,3,29,1,9,24,29,15,3,2,6,6,26,20,3,2,20,18,10,9,16,16,760.txt
0,0,0,0,0,20,19,0,22,0,0,16,30,27,16,0,9,27,16,24,23,4,6,6,3,7,6,7,3,28,0,24,3,3,0,25,23,0,13,6,3,12,6,6,11,3,3,2,3,3,6,7,11,11,765.txt
0,0,0,0,0,27,20,0,23,0,0,0,0,29,19,0,9,27,0,26,0,7,25,19,13,26,27,0,26,25,18,26,16,11,18,14,15,17,15,29,5,0,0,0,0,4,12,12,4,4,7,8,13,13,766.txt
0,0,0,0,0,20,19,0,22,0,0,16,30,27,16,0,9,27,16,7,23,4,6,19,3,7,6,7,3,28,0,24,0,3,0,25,23,0,13,6,0,12,3,9,11,0,12,13,0,0,1,1,1,16,768.txt
0,16,0,6,0,3,19,2,22,26,14,12,29,26,16,0,9,28,16,27,23,4,6,6,3,7,6,7,3,28,5,5,3,3,4,12,13,11,10,29,3,12,17,14,11,5,3,2,5,5,17,17,9,9,771.txt
0,0,0,0,0,20,19,0,22,0,0,16,30,27,16,0,9,27,16,24,23,4,6,6,3,7,6,7,3,28,0,24,3,3,0,25,17,0,13,6,3,12,6,6,11,5,3,2,5,5,5,5,5,5,772.txt
0,0,0,0,0,20,19,0,22,0,0,16,30,27,16,0,9,27,1,24,5,27,6,24,4,7,6,7,3,28,0,24,3,3,0,25,23,0,13,6,3,12,6,6,11,20,3,2,20,18,10,9,16,16,773.txt
0,0,0,0,0,20,0,0,22,0,0,16,30,27,16,0,9,27,16,27,29,0,0,29,0,0,0,0,28,0,18,2,0,0,18,11,12,8,15,23,0,12,3,12,11,4,11,13,4,4,29,24,22,20,775.txt
0,0,0,0,0,20,19,0,22,0,0,16,30,27,17,0,9,27,16,27,23,4,6,6,3,7,6,7,3,28,0,24,3,3,0,25,23,0,13,6,3,12,6,6,11,5,3,2,5,5,6,7,22,20,777.txt
0,0,0,0,1,20,19,10,5,0,4,5,5,3,3,30,10,11,16,12,23,4,4,6,3,17,8,16,22,15,12,19,3,3,7,1,5,25,21,7,3,12,6,6,11,21,3,6,21,23,22,28,9,9,779.txt
0,0,0,0,0,20,19,0,22,0,0,16,30,27,16,0,9,27,16,24,23,4,6,6,3,7,6,7,3,28,0,24,3,3,0,25,18,0,5,5,3,12,6,6,11,5,3,2,5,5,18,18,26,16,781.txt
0,0,0,0,0,20,19,0,22,0,0,16,30,27,16,0,9,27,16,24,10,7,6,19,12,7,6,7,3,28,0,24,13,7,0,25,23,0,13,6,0,12,3,21,11,0,11,27,0,0,1,1,1,16,785.txt
0,0,0,0,0,20,19,0,22,0,0,16,30,27,16,0,9,28,16,24,23,4,6,6,3,7,6,7,3,28,0,24,3,3,0,25,23,0,13,6,3,12,6,6,11,5,3,2,5,5,19,20,28,16,787.txt
27,15,1,1,1,1,1,1,5,20,4,5,5,3,3,23,23,26,16,9,23,4,18,6,3,17,8,16,16,21,7,8,3,9,29,1,5,30,30,15,3,2,6,6,27,3,3,2,3,3,29,29,22,20,790.txt
0,0,0,0,0,20,19,0,22,0,0,16,30,27,16,0,9,27,16,24,23,4,6,20,3,7,6,7,3,28,18,25,13,3,18,30,15,12,15,28,0,12,3,12,11,3,12,27,3,3,30,5,5,5,792.txt
0,0,0,0,0,20,19,0,22,0,0,16,30,27,16,0,9,27,16,24,23,4,6,6,3,7,6,7,3,28,0,24,3,3,0,25,23,0,13,6,3,12,6,6,11,3,3,22,3,3,30,19,22,20,796.txt
0,0,0,0,0,20,19,0,22,0,0,16,30,27,16,0,9,27,16,24,23,4,6,6,3,7,6,7,3,28,0,24,3,3,0,25,23,0,13,6,3,12,6,6,11,3,3,2,3,3,10,9,16,17,800.txt
0,0,0,0,0,20,19,0,22,0,0,16,30,27,16,0,9,27,16,24,10,6,27,20,12,9,9,11,3,10,0,24,13,7,0,25,23,0,13,6,0,12,3,12,11,21,12,27,20,18,10,9,16,30,802.txt
1,13,26,1,4,8,1,1,18,1,19,8,17,7,21,30,10,13,16,19,8,20,12,17,3,6,25,14,14,12,1,14,6,28,7,1,5,21,26,15,11,28,10,18,11,30,6,16,16,11,30,5,5,5,806.txt
0,0,0,0,0,26,20,0,23,0,0,0,0,28,16,0,9,27,18,24,12,6,27,19,13,9,9,11,0,10,0,24,16,11,0,25,23,0,13,6,5,15,15,13,17,0,11,13,0,0,6,7,13,13,807.txt
0,0,0,0,0,20,19,0,22,0,0,16,30,27,16,0,9,27,16,24,0,0,6,20,0,7,6,7,3,28,2,2,13,0,2,11,12,8,15,30,0,12,3,9,11,0,11,13,0,0,17,17,0,0,810.txt
0,0,0,0,0,26,20,0,23,0,0,0,0,28,16,0,9,27,18,24,12,6,27,19,0,9,9,11,27,10,2,2,16,11,2,11,12,8,15,28,5,16,21,23,18,0,0,0,0,0,1,1,1,30,813.txt
1,25,27,17,11,9,1,28,19,6,22,30,21,19,11,30,10,15,30,20,13,27,7,12,19,13,18,28,16,8,10,14,9,13,29,18,25,26,21,16,11,18,10,18,25,28,23,30,16,15,21,23,30,23,816.txt
0,0,0,0,0,20,19,0,22,0,0,16,30,27,16,0,9,27,29,24,30,26,27,15,16,22,23,19,3,19,0,24,16,7,0,25,22,0,14,5,26,11,15,13,7,30,12,12,15,11,27,24,24,24,817.txt
0,0,0,0,0,20,19,0,22,0,0,16,30,27,16,0,9,27,16,24,23,4,6,6,3,7,6,7,3,28,16,7,3,3,16,12,13,11,15,26,3,12,5,15,11,3,3,2,3,3,6,7,13,13,818.txt
0,16,0,6,0,3,20,0,23,27,0,25,12,12,16,0,0,27,18,0,10,6,11,19,12,9,9,11,28,10,16,22,16,7,16,12,13,11,2,28,5,0,21,23,0,3,0,0,3,3,6,7,9,9,821.txt
0,0,0,0,0,26,19,0,23,0,0,20,0,0,19,0,9,27,16,27,0,0,0,20,0,0,0,0,3,0,5,5,13,0,4,13,14,13,10,30,0,12,3,13,11,5,25,20,5,5,24,24,21,21,824.txt
0,0,0,0,0,20,19,0,22,0,0,16,30,27,16,0,9,27,16,24,23,4,6,6,3,7,6,7,3,28,0,24,3,3,0,25,23,0,13,6,3,12,6,6,11,3,3,2,3,3,10,9,16,16,827.txt
27,15,1,1,24,1,30,18,5,1,24,14,14,3,3,28,10,4,11,14,8,4,28,6,29,18,14,25,7,15,27,19,6,9,8,1,5,21,19,16,21,5,23,28,10,30,5,5,15,30,2,2,2,2,831.txt
0,0,0,0,0,20,19,0,22,0,0,16,30,27,16,0,9,27,16,24,23,4,6,6,3,7,6,7,3,28,0,24,3,3,0,25,23,0,13,6,3,12,6,6,11,23,3,2,20,18,18,18,26,16,832.txt
0,0,0,0,0,20,19,0,22,0,0,16,30,27,16,0,9,27,16,24,23,4,6,6,3,7,6,7,3,28,0,24,3,3,0,25,23,0,13,6,3,12,6,6,11,5,3,2,5,5,17,17,0,0,834.txt
0,0,0,0,0,20,19,0,22,0,0,16,30,27,16,0,9,27,16,24,23,4,6,6,3,7,6,7,3,28,0,24,3,3,0,25,23,0,13,6,3,12,6,6,11,3,3,2,3,3,10,9,16,16,836.txt
0,0,0,0,0,20,19,0,22,0,0,16,30,27,16,0,9,27,16,24,23,4,6,19,3,7,6,7,3,28,5,5,16,3,4,12,13,11,10,26,7,12,14,13,11,3,12,27,3,3,6,7,13,13,839.txt
27,15,20,1,25,1,14,12,5,1,24,30,21,3,3,28,10,4,16,20,23,4,4,21,3,10,17,27,10,8,12,13,6,27,29,1,8,23,19,16,21,23,23,28,26,21,12,27,23,22,24,24,24,24,842.txt
0,0,0,0,0,26,20,0,23,0,0,0,0,28,16,0,9,27,18,24,10,6,27,19,12,9,9,11,0,10,0,24,16,7,0,25,22,0,14,5,7,15,14,13,17,7,8,7,7,10,11,10,18,30,847.txt
0,0,0,0,0,20,4,0,21,0,0,16,30,27,16,6,12,20,8,11,19,18,13,2,8,2,30,2,2,2,22,24,21,18,27,23,0,7,0,0,2,30,5,15,16,14,2,24,10,9,6,7,0,0,851.txt
0,5,0,6,0,30,10,2,14,27,16,27,29,11,16,17,14,21,16,11,23,20,23,17,8,24,28,3,3,26,23,24,15,20,26,22,23,15,7,21,14,28,18,24,11,13,30,5,9,8,24,27,24,24,852.txt
0,13,26,1,4,5,14,10,19,1,24,30,21,3,3,18,6,6,25,20,30,26,4,13,17,10,21,28,10,8,12,14,3,3,29,7,5,5,9,16,3,12,6,6,11,21,1,8,26,23,27,5,5,5,855.txt
0,0,0,0,0,20,19,0,22,0,0,16,30,27,17,0,9,27,16,27,23,4,6,6,3,7,6,7,3,28,0,0,3,3,0,25,23,0,13,6,3,12,6,6,11,5,2,22,5,5,6,7,22,20,857.txt
0,0,0,0,0,20,19,0,22,0,0,16,30,27,16,0,9,27,1,24,7,27,6,24,4,7,6,7,3,28,0,24,3,3,0,25,0,0,0,0,3,12,6,6,11,1,3,2,17,16,11,10,18,16,859.txt
0,0,0,0,0,26,20,0,23,0,0,20,0,28,16,0,9,27,18,24,12,0,27,25,0,9,9,11,28,10,2,2,13,11,2,11,12,13,15,23,0,0,3,12,0,7,11,27,7,10,29,24,22,20,861.txt
0,16,2,6,7,3,19,2,22,27,14,12,12,12,2,0,9,27,16,24,23,4,6,6,3,7,6,7,3,28,16,7,3,3,16,12,13,11,15,28,3,12,18,14,11,3,4,24,3,3,6,7,10,10,864.txt
0,0,0,0,0,20,19,0,22,0,0,16,30,27,16,0,9,27,16,27,23,4,6,6,3,7,6,7,3,28,5,5,3,3,4,13,14,8,10,30,3,12,6,6,11,5,3,2,5,5,27,28,21,21,866.txt
0,0,0,0,0,20,19,0,22,0,0,16,30,27,16,0,9,27,16,24,23,4,6,20,3,7,6,7,3,28,0,24,3,3,0,25,23,0,13,6,3,12,3,12,11,3,25,12,3,3,10,9,16,17,868.txt
0,0,0,0,0,20,19,0,22,0,0,16,30,27,16,0,9,27,16,24,23,4,6,6,3,7,6,7,3,28,0,24,3,3,0,25,23,0,13,6,3,12,6,6,11,3,3,2,3,3,10,9,16,16,870.txt
0,0,0,0,0,20,19,0,22,0,0,16,30,27,19,0,9,27,16,27,23,4,6,6,3,7,6,7,3,28,2,2,3,3,18,13,14,8,15,23,3,12,6,6,11,5,3,2,5,5,5,6,13,13,872.txt
0,2,2,6,7,30,10,2,2,27,14,12,29,11,2,17,2,2,19,2,2,2,2,27,2,24,28,3,21,26,19,26,2,21,18,13,14,13,15,23,2,29,13,9,8,2,12,27,2,2,13,24,10,10,874.txt
0,0,0,0,0,20,19,0,22,0,0,16,30,27,16,0,9,27,16,24,23,4,6,6,3,7,6,7,3,28,0,24,3,3,0,25,23,0,13,6,3,12,6,6,11,5,3,2,5,5,1,1,1,30,879.txt
0,0,0,0,0,26,20,0,23,0,0,0,0,28,16,0,0,27,18,0,10,6,11,19,12,9,9,11,0,10,0,24,16,7,0,25,23,0,13,6,5,15,21,23,17,3,0,0,3,3,10,9,16,29,882.txt
0,16,2,6,7,3,10,2,13,27,14,12,12,12,2,6,12,20,8,11,19,17,15,2,8,2,30,2,2,2,5,5,23,20,4,12,13,11,10,26,30,25,19,14,15,13,3,2,9,8,30,30,9,9,884.txt
0,0,0,0,0,20,19,0,22,0,0,16,30,27,16,0,9,27,16,24,23,4,6,6,3,7,6,7,3,28,22,24,3,3,27,23,23,7,13,6,3,12,5,14,11,5,3,2,5,5,1,1,1,16,885.txt
0,0,0,0,0,20,19,0,22,0,0,16,30,27,16,0,9,27,16,24,23,4,6,6,3,7,6,7,3,28,0,24,3,3,0,25,23,0,13,6,3,12,6,6,11,5,3,2,5,5,6,7,13,13,886.txt
0,0,0,0,0,20,19,0,22,0,0,16,30,27,16,0,9,27,16,24,23,4,6,6,3,7,6,7,3,28,0,24,3,3,0,25,23,0,13,6,3,12,6,6,11,20,3,2,21,19,24,29,9,9,889.txt
0,0,0,0,0,20,19,0,22,0,0,16,30,27,16,0,9,27,12,24,21,26,6,28,18,7,6,7,3,28,5,5,16,11,4,12,13,8,10,29,8,12,15,3,11,20,11,20,21,20,6,7,22,20,891.txt
0,0,0,0,0,20,19,0,22,0,0,16,30,27,16,0,9,27,16,24,23,4,6,6,3,7,6,7,3,28,0,24,3,3,0,25,23,0,13,6,3,12,6,6,11,3,3,22,3,3,19,20,28,16,893.txt
0,16,2,6,7,4,11,25,2,27,16,26,16,11,10,17,2,2,19,2,19,2,2,27,2,3,28,3,21,3,19,26,2,21,18,14,15,13,15,29,2,29,13,9,1,14,8,7,10,9,24,24,13,13,896.txt
0,15,1,1,1,1,1,10,5,1,4,5,5,3,3,23,23,26,16,9,23,4,1,6,3,8,8,16,7,14,1,8,3,3,29,1,9,3,3,7,3,2,6,6,22,5,3,22,5,5,27,13,22,20,900.txt
0,13,26,1,4,8,3,3,5,1,4,5,5,3,3,28,10,13,16,3,23,4,4,6,3,17,8,16,10,9,11,14,3,3,29,1,8,25,21,15,3,12,6,6,11,30,3,2,20,18,10,9,16,17,902.txt
27,29,23,8,30,5,1,28,4,20,6,30,4,21,4,4,27,15,3,1,30,29,24,1,15,5,4,6,18,7,8,28,19,13,10,10,11,29,24,3,29,30,22,25,8,29,19,15,13,15,8,15,23,23,905.txt
0,0,0,0,0,20,19,0,22,0,0,16,30,27,16,0,9,27,8,24,19,17,6,27,3,7,6,7,21,28,22,24,13,3,27,23,23,7,13,6,0,30,13,12,14,3,12,13,3,3,30,24,9,9,907.txt
0,0,0,0,0,20,19,0,22,0,0,16,30,27,16,0,9,27,1,24,1,27,6,24,4,7,6,7,3,28,0,24,3,3,0,25,18,0,5,5,3,26,6,6,7,21,3,2,20,18,10,9,16,16,909.txt
0,0,0,0,0,20,7,0,2,0,0,16,30,27,16,15,30,2,19,2,22,16,14,27,2,24,28,3,21,26,24,0,22,19,26,22,23,16,6,6,15,29,18,4,1,13,4,3,9,8,24,28,13,13,911.txt
0,0,0,0,0,26,19,0,23,0,0,0,0,28,16,0,9,27,1,24,1,1,27,24,4,9,9,11,3,10,0,24,13,0,0,25,0,0,0,0,0,3,3,13,3,1,17,9,20,18,11,10,18,16,914.txt
27,15,1,26,1,9,1,12,20,20,6,30,24,18,5,4,27,10,29,12,13,11,17,15,26,27,4,29,18,8,7,18,25,25,15,21,27,27,23,11,21,6,23,28,10,30,26,30,13,16,25,23,27,23,917.txt
27,15,1,1,1,5,14,12,5,1,4,5,5,3,3,10,10,13,16,20,23,4,1,6,3,17,8,16,10,9,12,8,6,27,29,1,9,3,3,7,20,18,24,27,25,20,3,2,23,22,27,28,13,13,922.txt
0,0,0,0,0,20,19,0,22,0,0,16,30,27,16,0,9,27,16,24,23,4,6,6,3,7,6,7,3,28,5,5,3,3,4,12,13,9,10,24,3,12,6,6,11,3,3,2,3,3,6,7,24,24,924.txt
0,0,0,0,0,26,19,0,23,0,0,0,0,28,16,0,9,28,16,24,29,6,27,19,0,9,9,11,3,10,0,24,0,11,0,25,23,0,13,6,0,12,3,9,11,0,12,27,0,0,1,1,1,16,925.txt
0,0,0,0,1,20,19,10,5,0,4,5,5,3,3,10,10,11,16,20,23,4,1,6,3,8,8,16,7,14,11,14,3,3,29,1,5,3,3,16,3,2,5,15,26,24,3,22,6,27,27,13,13,13,926.txt
27,13,26,9,4,8,1,1,5,1,4,5,5,3,3,11,11,4,16,29,23,4,1,6,3,8,8,16,24,21,1,16,6,9,12,1,5,3,3,12,24,4,24,28,29,20,3,22,20,18,24,29,22,20,928.txt
0,0,0,0,0,20,19,0,22,0,0,16,30,27,16,0,9,27,16,24,23,4,6,6,3,7,6,7,3,28,0,24,3,3,0,25,23,0,13,6,3,12,6,6,11,3,3,2,3,3,18,18,26,16,930.txt
0,0,0,0,0,20,19,0,22,0,0,16,30,27,16,0,9,27,16,24,23,4,6,6,3,7,6,7,3,28,0,24,3,3,0,25,23,0,13,6,3,12,6,6,11,3,3,2,3,3,6,7,9,9,932.txt
27,30,23,8,28,14,14,28,26,29,22,30,21,21,27,4,27,29,30,20,30,26,24,16,26,10,17,27,10,8,7,30,19,13,24,9,29,30,30,15,21,1,22,25,8,28,1,10,12,15,21,26,30,23,935.txt
0,0,0,0,0,20,19,0,22,0,0,16,30,27,16,0,9,27,16,24,23,4,6,6,3,7,6,7,3,28,0,24,3,3,0,25,23,0,13,6,3,12,6,6,11,3,3,5,3,3,17,17,22,20,940.txt
0,0,0,0,0,20,19,0,22,0,0,16,30,27,17,0,9,27,16,27,23,4,6,6,3,7,6,7,3,28,0,24,3,3,0,25,23,0,13,6,3,12,6,6,11,3,3,2,3,3,19,20,28,16,942.txt
1,13,26,9,11,8,23,14,18,1,19,9,17,8,21,11,28,13,6,6,5,28,21,30,28,13,16,14,18,17,29,30,30,24,24,1,21,18,16,8,11,6,11,19,29,28,3,2,30,14,2,2,2,26,944.txt
0,0,0,0,0,20,19,0,22,0,0,16,30,27,16,0,9,27,16,24,23,4,6,6,3,7,6,7,3,28,0,24,3,3,0,25,23,0,13,6,3,12,6,6,11,3,3,2,3,3,6,7,9,9,946.txt
0,0,0,0,0,20,19,0,22,0,0,16,30,27,16,0,9,27,4,24,5,1,6,12,17,7,6,7,3,28,2,2,3,3,18,29,15,8,15,30,3,12,6,6,11,20,3,2,21,19,27,29,22,20,949.txt
0,0,0,0,0,20,19,0,22,0,0,16,30,27,16,0,9,27,16,24,23,4,6,6,3,7,6,7,3,28,0,24,3,3,0,25,23,0,13,6,3,12,6,6,11,5,3,2,5,5,17,17,22,20,951.txt
0,0,0,0,0,26,4,0,14,0,0,0,0,28,16,17,12,20,2,11,19,17,15,27,8,24,28,3,21,27,16,22,2,21,16,12,13,11,15,26,30,13,13,12,1,13,25,27,9,8,30,24,21,21,954.txt
0,0,0,0,0,20,19,0,22,0,0,16,30,27,16,0,9,27,1,24,7,27,6,24,4,7,6,7,3,28,0,24,3,3,0,25,0,0,0,0,3,3,6,6,3,20,3,2,20,18,10,9,16,16,956.txt
0,13,26,1,4,1,14,10,5,1,4,5,5,3,3,11,11,11,16,20,23,4,4,6,3,17,8,16,10,9,11,30,3,3,24,1,5,25,21,15,3,18,6,6,25,3,3,2,3,3,27,30,22,20,959.txt
0,0,0,0,0,20,19,0,22,0,0,16,30,27,16,0,9,27,16,24,23,4,6,6,3,7,6,7,3,28,22,24,3,3,27,23,23,7,13,6,3,12,5,15,11,3,3,2,3,3,6,7,13,13,961.txt
0,0,0,0,0,20,19,0,22,0,0,16,30,27,16,0,9,27,16,24,10,6,6,19,12,7,6,7,3,28,0,24,13,7,0,25,23,0,13,6,0,12,3,12,11,3,11,13,3,3,18,18,26,16,962.txt
0,16,9,6,7,30,10,26,15,27,16,25,13,13,24,17,8,22,19,11,19,2,13,27,8,24,28,3,21,26,18,26,2,21,18,14,15,13,15,29,2,30,13,12,16,24,12,27,29,27,7,8,13,13,964.txt
0,0,0,0,0,20,4,0,7,0,0,16,30,27,16,6,7,7,16,10,23,4,5,6,24,24,30,17,3,27,17,7,21,18,16,12,13,9,15,24,30,12,19,14,11,28,3,2,12,29,6,7,9,9,966.txt
0,0,0,0,0,26,19,0,23,0,0,0,0,28,16,0,9,27,16,24,10,6,27,19,12,22,23,26,3,18,16,22,13,7,16,12,13,9,15,24,0,12,3,12,11,3,12,27,3,3,6,7,9,9,968.txt
0,0,0,0,0,20,19,0,22,0,0,16,30,27,16,0,9,27,16,24,23,4,6,6,3,7,6,7,3,28,0,24,3,3,0,25,0,0,0,0,3,12,6,6,11,5,3,2,5,5,10,9,16,16,970.txt
0,0,0,0,0,26,19,0,23,0,0,0,0,28,16,0,9,27,16,23,10,6,27,19,12,9,9,11,3,10,25,24,16,7,0,25,23,0,13,6,5,12,14,13,11,8,11,20,17,29,12,9,17,30,974.txt
0,0,0,0,0,20,19,0,22,0,0,16,30,27,16,0,9,27,16,24,23,4,6,6,3,7,6,7,3,28,0,24,3,3,0,25,23,0,13,6,3,12,6,6,11,4,3,2,4,4,10,9,16,16,975.txt
0,0,0,0,0,20,19,0,22,0,0,16,30,27,16,27,9,23,16,24,23,4,6,6,3,7,6,7,3,28,22,24,3,3,27,23,23,7,13,6,3,19,19,14,28,3,3,2,3,3,21,23,7,7,979.txt
0,0,0,0,0,26,19,0,23,0,0,0,0,28,16,27,9,23,8,24,27,25,27,2,12,23,24,19,2,19,5,5,16,6,4,12,13,9,10,24,5,25,21,23,15,3,0,0,3,3,6,7,7,7,981.txt
0,0,0,0,0,20,19,0,22,0,0,16,30,27,16,0,9,27,16,24,23,4,6,6,3,7,6,7,3,28,0,24,3,3,0,25,23,0,13,6,3,12,6,6,11,5,3,2,5,5,11,10,18,1,987.txt
0,16,0,6,0,3,19,2,22,26,14,12,12,12,16,0,9,27,16,24,23,4,6,6,3,7,6,7,3,28,5,5,3,3,4,12,13,11,10,26,3,12,19,14,11,3,3,2,3,3,6,7,9,9,989.txt
29,15,1,9,9,9,30,20,5,22,29,14,14,5,5,1,1,1,27,8,25,20,1,17,30,18,14,25,7,21,27,10,6,9,15,17,5,3,3,12,19,4,24,26,4,3,6,16,3,3,2,2,2,26,994.txt
0,0,0,0,0,20,19,0,22,0,0,16,30,27,16,0,9,28,16,24,23,4,6,19,3,7,6,7,3,28,0,24,3,3,0,25,0,0,0,0,3,3,14,13,3,0,0,0,0,0,11,10,18,16,996.txt
0,0,0,0,0,20,19,0,22,0,0,16,30,27,16,0,9,27,16,27,23,4,6,6,3,7,6,7,3,28,0,24,3,3,0,25,17,0,13,6,3,12,6,6,11,5,3,2,5,5,13,5,5,5,998.txt
0,0,0,0,0,26,20,0,23,0,0,0,0,28,16,0,9,27,18,24,10,6,27,19,12,9,9,11,28,10,16,22,16,7,16,12,13,9,15,24,5,16,21,23,18,3,28,12,3,3,6,7,24,24,1002.txt
0,0,0,0,0,20,19,0,22,0,0,16,30,27,16,0,9,27,16,24,23,4,6,6,3,7,6,7,3,28,0,24,3,3,0,25,23,0,13,6,3,12,6,6,11,30,3,2,30,16,10,9,16,16,1005.txt
0,0,0,0,0,20,19,0,22,0,0,16,30,27,16,0,9,27,16,24,23,4,6,6,3,7,6,7,3,28,0,24,3,3,0,25,23,0,13,6,3,12,6,6,11,3,3,2,3,3,10,9,16,16,1008.txt
0,0,0,0,4,20,19,1,5,0,4,5,5,3,3,30,10,13,16,20,23,4,4,6,3,17,8,16,10,9,1,14,3,3,29,1,5,25,21,15,3,18,6,6,24,3,3,2,3,3,27,29,11,11,1010.txt
0,0,0,0,0,20,19,0,22,0,0,16,30,27,16,0,9,27,16,24,23,4,6,6,3,7,6,7,3,28,0,24,3,3,0,25,23,0,13,6,3,12,6,6,11,3,3,2,3,3,10,9,16,17,1013.txt
0,0,0,0,0,26,20,0,23,0,0,0,0,28,16,0,9,27,18,24,10,6,27,19,12,9,9,11,26,10,16,22,13,7,16,12,13,11,15,26,0,15,3,12,17,3,12,27,3,3,6,7,9,9,1015.txt
0,0,0,0,0,26,20,0,23,0,0,0,0,28,16,0,9,27,18,24,10,6,27,25,12,9,9,11,28,10,17,7,16,7,16,12,13,11,15,26,8,15,15,12,17,3,9,11,3,3,12,9,17,29,1018.txt
1,25,27,17,11,5,1,1,18,8,19,8,17,7,21,11,19,13,3,1,30,26,29,10,19,10,29,5,18,24,26,28,1,17,10,18,5,28,25,16,11,18,10,18,24,27,19,10,13,30,25,5,5,5,1020.txt
0,0,0,0,0,20,19,0,22,0,0,16,30,27,16,0,9,27,16,24,10,6,27,19,12,23,24,19,3,19,0,24,13,7,0,25,23,0,13,6,0,12,21,23,11,3,0,0,3,3,6,7,7,7,1022.txt
0,0,0,0,0,20,19,0,22,0,0,16,30,27,16,0,9,27,16,24,23,4,6,6,3,7,6,7,3,28,22,24,3,3,27,23,23,7,13,6,3,12,5,14,11,3,3,2,3,3,10,9,16,16,1025.txt
0,0,0,0,0,20,19,0,22,0,0,16,30,27,16,0,9,27,1,24,5,27,6,24,4,7,6,7,3,28,0,24,3,3,0,25,23,0,13,6,3,12,6,6,11,30,3,2,20,18,10,9,16,16,1027.txt
0,0,0,0,0,20,19,0,22,0,0,16,30,27,16,0,9,27,16,24,23,4,6,6,3,7,6,7,3,28,5,5,3,3,4,12,13,9,10,24,3,3,6,6,3,3,3,2,3,3,6,7,7,7,1030.txt
0,0,0,0,0,23,19,0,23,0,0,0,0,28,16,0,9,27,29,23,5,28,27,11,16,22,23,26,3,18,25,24,12,7,0,25,23,0,13,6,7,12,14,12,11,30,1,9,15,30,25,24,27,23,1036.txt
0,0,0,0,0,20,19,0,22,0,0,16,30,27,16,0,9,27,16,24,23,4,6,6,3,7,6,7,3,28,0,24,3,3,0,25,23,0,13,6,3,12,6,6,11,5,3,2,5,5,1,1,1,16,1041.txt
0,0,0,0,0,20,19,0,22,0,0,16,30,27,16,0,9,27,30,24,5,27,6,30,28,7,6,7,3,28,0,24,3,3,0,25,23,0,13,6,3,12,6,6,11,18,15,8,13,16,10,9,16,17,1043.txt
0,0,0,0,0,20,19,0,22,0,0,16,30,27,16,0,9,27,16,24,23,4,6,19,3,7,6,7,3,28,0,24,16,3,0,25,23,0,13,6,8,12,15,13,11,20,11,20,21,23,6,7,9,9,1045.txt
0,0,0,0,0,26,19,0,23,0,0,20,0,28,16,0,9,27,16,24,29,6,27,20,13,9,9,11,3,10,0,24,16,11,0,25,23,0,13,6,7,12,14,12,11,3,11,13,3,3,10,9,16,16,1046.txt
0,0,0,0,0,20,20,0,22,0,0,16,30,27,16,0,9,27,16,24,10,6,27,19,12,23,24,19,0,19,0,24,13,7,0,25,23,0,13,6,0,12,21,23,11,3,9,11,3,3,14,9,19,28,1048.txt
0,0,0,0,0,20,19,0,22,0,0,16,30,27,16,0,9,27,1,24,5,27,6,24,4,7,6,7,3,28,0,24,3,3,0,25,23,0,13,6,3,12,6,6,11,10,3,2,14,16,10,9,16,17,1051.txt
0,0,0,0,0,20,19,0,22,0,0,16,30,27,16,0,9,27,16,24,23,4,6,6,3,7,6,7,3,28,0,24,3,3,0,25,23,0,13,6,3,12,6,6,11,3,3,2,3,3,27,30,13,13,1054.txt
0,0,0,0,0,20,19,0,22,0,0,16,30,27,16,27,9,23,16,24,23,4,20,19,3,7,6,7,3,28,17,7,13,3,16,12,13,9,15,24,0,12,3,10,11,19,9,11,25,21,8,15,7,7,1057.txt
0,0,0,0,0,20,19,0,22,0,0,16,30,27,16,0,9,27,4,24,21,26,6,15,17,7,6,7,3,28,22,24,3,3,27,23,23,7,13,6,3,12,18,14,11,20,3,2,21,19,17,17,22,20,1059.txt
0,0,0,0,0,20,19,0,22,0,0,16,30,27,16,0,9,27,1,24,7,1,6,24,4,7,6,7,3,28,0,24,3,3,0,25,23,0,13,6,3,12,6,6,11,20,16,8,20,18,10,9,16,16,1060.txt
0,0,0,0,0,26,20,0,23,0,0,20,0,28,16,0,9,27,18,24,10,6,27,19,12,23,24,26,0,18,0,24,13,7,0,25,23,0,13,6,0,15,3,12,17,3,28,19,3,3,10,9,16,28,1064.txt
0,0,0,0,0,20,19,0,22,0,0,16,30,27,16,0,9,27,16,24,23,4,6,6,3,7,6,7,3,28,0,24,3,3,0,25,23,0,13,6,3,12,6,6,11,5,3,2,5,5,1,1,1,16,1069.txt
0,0,0,0,0,20,19,0,22,0,0,16,30,27,16,0,9,27,16,24,23,4,6,6,3,7,6,7,3,28,0,24,3,3,0,25,23,0,13,6,3,12,6,6,11,3,3,2,3,3,10,9,16,16,1071.txt
0,0,0,0,0,20,19,0,22,0,0,16,30,27,16,0,9,27,16,24,23,4,6,6,3,7,6,7,3,28,0,24,3,3,0,25,23,0,13,6,3,12,6,6,11,3,3,2,3,3,10,9,16,16,1073.txt
0,0,0,0,0,20,19,0,22,0,0,16,30,27,16,0,9,27,16,24,10,6,27,19,12,23,24,19,3,19,5,5,13,7,4,12,13,9,10,24,0,12,21,23,11,3,0,0,3,3,6,5,5,5,1075.txt
0,0,0,0,0,26,19,0,23,0,0,20,0,28,16,0,9,27,16,24,10,14,27,19,12,9,9,11,3,10,22,24,16,7,27,23,23,7,13,6,26,12,15,13,11,3,11,13,3,3,25,24,13,13,1076.txt
0,0,0,0,0,20,19,0,22,0,0,16,30,27,16,0,9,27,16,27,23,4,6,6,3,7,6,7,3,28,0,24,3,3,0,25,23,0,13,6,3,12,6,6,11,5,3,2,5,5,22,13,0,0,1078.txt
0,0,0,0,0,20,19,0,22,0,0,16,30,27,16,0,9,27,16,24,23,4,6,6,3,7,6,7,3,28,0,24,3,3,0,25,23,0,13,6,3,12,6,6,11,3,3,2,3,3,10,9,16,16,1080.txt
0,0,0,0,0,20,4,0,7,0,0,16,30,27,16,6,7,7,8,10,27,25,5,2,24,2,30,2,2,2,17,7,21,18,16,12,13,9,15,24,30,25,19,14,15,12,3,2,8,7,6,7,7,7,1082.txt
0,0,0,0,0,20,19,0,22,0,0,16,30,27,16,0,9,27,16,24,23,4,6,6,3,7,6,7,3,28,0,24,3,3,0,25,23,0,13,6,3,12,6,6,11,5,3,2,5,5,1,1,1,16,1084.txt
0,16,0,6,0,3,19,26,22,26,14,12,12,12,16,0,9,27,16,24,23,4,6,6,3,7,6,7,3,28,22,24,3,3,27,23,23,7,13,6,3,12,5,14,11,3,3,2,3,3,25,30,11,11,1086.txt
0,0,0,0,0,26,20,0,23,0,0,0,0,28,16,0,9,27,18,24,12,6,27,19,14,23,24,18,28,18,5,5,13,11,4,11,12,17,10,28,0,15,21,23,17,3,0,0,3,3,14,9,19,30,1088.txt
29,15,1,1,25,1,29,20,6,20,21,30,21,3,3,28,29,29,29,14,16,11,19,3,23,14,22,29,10,8,7,19,25,25,29,27,20,30,30,16,21,23,23,26,26,30,1,29,15,29,10,9,16,29,1090.txt
0,0,0,0,0,20,19,0,22,0,0,16,30,27,16,0,9,27,16,24,0,0,6,20,0,7,6,7,3,28,5,5,13,0,4,13,14,13,10,30,0,12,21,23,11,5,25,27,5,5,17,17,22,20,1093.txt
0,0,0,0,0,26,19,0,23,0,0,0,0,28,16,0,9,27,16,24,10,6,27,20,12,9,9,11,3,10,2,2,10,7,18,29,15,8,15,23,7,12,14,12,11,11,12,13,24,24,10,9,16,30,1094.txt
0,16,2,6,7,3,19,2,22,26,14,12,12,12,2,0,9,27,16,24,23,4,6,6,3,7,6,7,3,28,5,5,3,3,4,12,13,11,10,26,3,12,19,14,11,3,6,6,3,3,6,7,11,11,1096.txt
0,0,0,0,0,26,19,0,23,0,0,17,0,28,16,0,9,27,16,24,12,6,27,21,0,22,23,18,3,18,0,24,13,11,0,25,23,0,13,6,0,23,3,12,27,3,12,27,3,3,1,1,1,30,1101.txt
0,0,0,0,0,20,19,0,22,0,0,16,30,27,16,0,9,27,16,24,23,4,6,6,3,7,6,7,3,28,0,24,3,3,0,25,23,0,13,6,3,12,6,6,11,3,3,2,3,3,10,9,16,16,1105.txt
0,0,0,0,0,20,19,0,22,0,0,16,30,27,16,0,9,27,16,24,23,4,6,6,3,7,6,7,3,28,0,24,3,3,0,25,23,0,13,6,3,12,6,6,11,3,3,2,3,3,6,5,5,5,1106.txt
27,13,26,1,4,1,15,1,19,1,6,7,4,3,3,18,6,6,29,20,5,27,4,1,27,5,4,6,11,7,6,6,4,4,25,1,25,5,9,3,29,18,4,5,25,30,19,15,16,15,25,5,5,5,1108.txt
0,0,0,0,0,20,19,0,22,0,0,16,30,27,16,0,9,27,16,24,23,4,6,6,3,7,6,7,3,28,0,24,3,3,0,25,23,0,13,6,3,12,6,6,11,3,3,2,3,3,10,9,16,17,1109.txt
0,0,0,0,0,20,19,0,22,0,0,16,30,27,16,0,9,27,16,24,23,4,6,6,3,7,6,7,3,28,0,24,3,3,0,25,23,0,13,6,3,12,6,6,11,24,3,2,6,27,1,1,1,16,1114.txt
0,0,0,0,0,20,4,0,7,0,0,16,30,27,16,17,7,7,16,10,23,4,15,6,8,24,2,17,3,27,22,24,21,18,27,23,23,7,13,6,30,12,19,15,11,13,6,2,8,7,6,7,11,11,1117.txt
0,0,0,0,0,20,19,0,22,0,0,16,30,27,16,0,9,27,16,24,23,4,6,6,3,7,6,7,3,28,0,24,3,3,0,25,23,0,13,6,3,12,6,6,11,3,3,2,3,3,10,9,16,16,1118.txt
0,0,0,0,0,20,19,0,22,0,0,16,30,27,16,0,9,27,16,24,23,4,6,6,3,7,6,7,3,28,0,24,3,3,0,25,23,0,13,6,3,12,6,6,11,3,3,2,3,3,10,9,16,30,1121.txt
0,0,0,0,0,20,19,0,22,0,0,16,30,27,16,0,9,27,16,24,8,4,6,6,3,7,6,7,3,28,0,24,3,3,0,25,23,0,13,6,3,12,7,7,11,5,2,22,5,5,10,9,16,16,1122.txt
0,0,0,0,0,20,19,0,22,0,0,16,30,27,16,0,9,27,16,24,23,4,6,6,3,7,6,7,3,28,0,24,3,3,0,25,23,0,13,6,3,12,6,6,11,3,3,2,3,3,10,9,16,16,1124.txt
0,0,0,0,0,20,19,0,22,0,0,16,30,27,16,0,9,27,29,24,1,11,6,15,20,7,6,7,3,28,0,24,3,3,0,25,22,0,14,5,3,12,6,6,11,8,3,2,13,11,6,7,22,20,1126.txt
0,16,0,6,0,3,19,0,22,26,0,12,12,12,16,0,9,27,16,24,23,4,6,6,3,7,6,7,3,28,16,23,3,3,16,12,13,9,15,24,3,12,6,6,11,3,3,2,3,3,6,7,7,7,1128.txt
0,0,0,0,0,20,19,0,22,0,0,16,30,27,16,0,9,28,4,24,30,26,6,24,4,7,6,7,3,28,22,0,3,3,27,23,23,7,13,6,3,12,5,15,11,24,3,2,28,27,5,29,0,0,1130.txt
0,0,0,0,0,20,19,0,22,0,0,16,30,27,16,0,9,27,16,24,23,4,6,19,3,7,6,7,3,28,0,24,16,3,0,25,23,0,13,6,26,12,15,13,11,5,12,20,5,5,30,24,13,13,1135.txt
0,0,0,0,0,20,19,0,22,0,0,16,30,27,16,0,9,27,16,24,23,4,6,6,3,7,6,7,3,28,5,5,3,3,4,12,13,11,10,26,3,12,6,6,11,3,3,2,3,3,27,30,22,20,1136.txt
0,0,0,0,0,20,19,0,22,0,0,16,30,27,16,0,9,27,16,24,23,4,6,6,3,7,6,7,3,28,0,24,3,3,0,25,23,0,13,6,3,12,6,6,11,4,3,2,4,4,6,7,9,9,1137.txt
0,15,19,9,25,1,14,10,19,1,27,30,21,3,3,11,11,4,4,20,5,1,4,15,17,11,17,27,10,8,11,27,3,3,24,1,9,28,29,16,3,12,6,6,11,20,3,2,23,22,27,28,22,20,1139.txt
27,15,1,9,25,1,1,11,5,20,28,30,21,3,3,10,10,29,30,29,5,27,19,13,21,11,18,30,22,8,7,20,13,17,7,1,5,27,23,12,27,5,3,11,29,28,9,11,17,30,25,24,24,24,1141.txt
0,16,2,6,4,3,19,2,22,26,19,10,17,20,21,18,6,6,16,20,23,4,7,6,3,10,29,5,16,24,6,6,3,3,25,1,25,5,9,16,3,19,19,14,28,28,3,2,16,15,25,23,7,7,1143.txt
0,0,0,0,0,26,20,0,23,0,0,0,0,28,16,0,9,27,18,24,10,6,27,19,12,9,9,11,28,10,5,5,16,7,4,12,13,11,10,26,5,0,15,13,0,3,11,20,3,3,6,7,22,20,1147.txt
0,0,0,0,0,26,22,0,23,0,0,0,0,28,16,0,0,0,12,0,16,11,11,12,18,9,9,11,29,10,5,5,16,11,4,12,13,17,10,29,7,0,14,11,0,20,8,7,20,18,0,0,12,12,1149.txt
0,16,2,6,7,3,19,2,22,26,14,12,12,12,2,0,9,27,16,24,23,4,6,6,3,7,6,7,3,28,5,5,3,3,4,12,13,9,10,24,3,12,6,6,11,3,3,2,3,3,6,7,7,7,1151.txt
0,0,0,0,0,20,19,0,22,0,0,16,30,27,16,0,9,27,16,24,23,4,6,6,3,7,6,7,3,28,0,24,3,3,0,25,23,0,13,6,3,12,6,6,11,5,3,2,5,5,10,9,16,16,1152.txt
0,0,0,0,0,20,19,0,22,0,0,16,30,27,16,0,9,27,16,24,23,4,6,6,3,7,6,7,3,28,0,24,3,3,0,25,23,0,13,6,3,12,6,6,11,3,3,2,3,3,6,7,22,20,1156.txt
0,16,2,6,7,3,20,2,22,26,14,12,13,13,2,0,9,27,18,24,12,6,27,19,14,9,9,11,28,10,5,5,16,11,4,11,12,8,10,30,5,16,21,23,18,3,0,0,3,3,17,17,10,10,1158.txt
0,0,0,0,0,20,19,0,22,0,0,16,30,27,16,0,9,27,16,24,23,4,6,6,3,7,6,7,3,28,16,22,3,3,16,12,13,9,15,24,3,12,5,14,11,28,3,2,13,15,6,7,7,7,1161.txt
0,0,0,0,0,26,19,0,23,0,0,20,0,28,16,0,9,27,26,24,5,1,27,24,23,9,9,11,3,10,0,24,16,7,0,25,23,0,13,6,7,12,14,13,11,20,8,7,20,18,10,9,16,30,1166.txt
0,0,0,0,0,20,4,0,8,0,0,16,30,27,16,2,13,8,18,11,23,4,14,29,8,3,28,3,26,3,18,25,2,21,18,30,15,12,15,27,15,0,13,12,0,13,12,27,9,8,12,9,17,29,1168.txt
1,15,1,9,9,8,8,8,27,6,29,24,18,24,28,18,6,6,10,4,10,6,7,29,24,20,12,12,11,23,6,6,4,4,25,4,25,5,9,8,11,27,4,5,29,21,9,11,26,23,4,3,3,3,1169.txt
0,0,0,0,0,20,19,0,22,0,0,16,30,27,16,0,9,27,16,24,8,4,6,6,3,7,6,7,3,28,0,24,3,3,0,25,23,0,13,6,3,12,7,7,11,9,6,6,14,15,10,9,16,17,1171.txt
0,0,0,0,0,20,19,0,22,0,0,16,30,27,16,0,9,27,16,24,23,4,6,19,3,7,6,7,3,28,0,24,16,3,0,25,23,0,13,6,5,12,21,23,11,5,0,0,5,5,10,9,16,16,1175.txt
0,0,0,0,4,20,19,0,22,0,8,5,5,3,3,10,10,4,16,16,23,4,1,6,3,17,8,16,7,14,1,8,3,3,29,1,9,3,3,13,3,12,6,6,11,24,3,2,6,27,5,6,22,20,1177.txt
23,10,19,1,25,1,14,6,19,25,24,30,21,3,3,26,22,29,13,20,16,11,19,11,16,10,17,27,10,8,7,13,6,26,29,27,4,30,30,16,21,23,23,26,26,17,1,10,15,29,25,24,30,23,1179.txt
0,0,0,0,0,20,20,0,22,0,0,16,30,27,16,0,9,27,18,24,10,6,27,19,12,22,23,19,27,19,17,22,13,7,16,12,13,9,15,24,0,15,21,23,17,3,0,0,3,3,14,9,19,29,1183.txt
0,15,1,9,1,1,1,10,5,20,4,5,5,3,3,4,27,10,1,20,5,1,18,1,18,18,4,6,7,7,7,17,3,3,8,1,5,27,23,3,3,12,6,6,11,20,3,6,21,19,29,22,9,9,1184.txt
19,15,19,8,28,5,14,12,26,14,27,30,21,25,27,4,27,30,29,20,30,26,29,15,16,10,17,27,10,8,12,19,25,25,8,9,30,20,19,16,24,30,22,25,1,30,16,9,15,16,20,24,30,23,1190.txt
1,15,1,1,25,15,1,1,18,25,19,8,17,7,21,30,26,29,16,29,23,4,19,21,3,10,29,14,18,24,7,20,1,13,29,1,25,27,23,12,28,22,10,18,26,30,12,19,12,30,25,26,11,11,1192.txt
0,0,0,0,0,20,19,0,22,0,0,16,30,27,16,0,9,27,16,24,23,4,6,6,3,7,6,7,3,28,0,24,3,3,0,25,23,0,13,6,3,12,6,6,11,5,3,2,5,5,24,30,22,20,1194.txt
0,0,0,0,0,20,19,0,22,0,0,16,30,27,16,0,9,27,16,24,8,4,6,20,3,7,6,7,3,28,0,24,13,3,0,25,23,0,13,6,0,12,3,12,11,3,25,12,3,3,22,24,21,21,1196.txt
0,0,0,0,0,20,19,0,22,0,0,16,30,27,16,0,9,27,16,24,23,4,6,6,3,7,6,7,3,28,18,25,3,3,18,29,15,12,15,27,3,12,6,6,11,3,3,6,3,3,6,7,24,24,1197.txt
0,0,0,0,0,20,19,0,22,0,0,16,30,27,16,0,9,27,16,24,23,4,6,6,3,7,6,7,3,28,0,24,3,3,0,25,23,0,13,6,3,3,6,6,3,3,3,2,3,3,10,9,16,16,1199.txt
0,16,2,6,7,3,10,2,7,26,14,12,12,12,2,6,7,7,16,10,23,4,5,6,24,2,30,2,3,2,5,5,23,20,4,12,13,9,10,24,30,12,19,14,11,13,4,24,8,7,6,7,11,11,1201.txt
0,0,0,0,0,20,19,0,22,0,0,16,30,27,16,20,9,17,16,24,23,4,20,6,3,7,6,7,3,28,0,24,18,3,0,25,23,0,13,6,9,12,6,6,11,3,3,2,3,3,6,7,7,7,1203.txt
0,0,0,0,0,20,19,0,22,0,0,16,30,27,16,0,9,27,16,24,23,4,6,6,3,7,6,7,3,28,0,24,3,3,0,25,23,0,13,6,3,12,6,6,11,3,3,2,3,3,10,9,16,16,1205.txt
1,29,26,1,4,6,25,7,18,16,9,28,8,20,7,7,16,19,14,17,30,30,7,15,20,10,16,5,9,17,4,4,1,13,13,28,25,4,8,9,13,19,9,17,28,17,1,14,30,25,25,23,30,23,1207.txt
0,0,0,0,0,23,20,0,23,0,0,0,0,28,16,20,0,17,18,0,10,6,11,19,12,22,23,26,27,18,17,23,16,7,17,2,2,2,15,2,5,0,14,11,0,19,0,0,25,21,12,21,17,29,1211.txt
0,0,0,0,0,20,19,0,22,0,0,16,30,27,16,0,9,27,16,24,23,4,6,6,3,7,6,7,3,28,0,24,3,3,0,25,23,0,13,6,3,12,6,6,11,3,3,2,3,3,10,9,16,16,1214.txt
0,0,0,0,0,20,19,0,22,0,0,16,30,27,16,0,9,27,16,24,23,4,6,6,3,7,6,7,3,28,0,24,3,3,0,25,0,0,0,0,3,12,6,6,11,3,3,2,3,3,10,9,16,16,1216.txt
0,0,0,0,0,20,19,0,22,0,0,16,30,27,16,0,9,27,16,24,23,4,6,6,3,7,6,7,3,28,0,24,3,3,0,25,23,0,13,6,3,12,6,6,11,3,2,22,3,3,6,7,9,9,1217.txt
0,0,0,0,0,20,19,0,22,0,0,16,30,27,16,0,9,27,1,24,1,1,27,24,23,9,9,11,3,10,0,24,13,7,0,25,23,0,13,6,0,12,3,13,11,23,11,13,20,18,30,24,9,9,1219.txt
0,19,0,6,0,11,0,21,23,23,16,26,16,11,19,0,9,0,0,26,0,7,25,25,13,26,27,0,28,25,19,26,0,11,3,14,15,13,15,23,27,0,3,3,0,4,12,27,4,4,0,0,13,13,1221.txt
1,13,26,1,4,5,1,1,18,1,19,8,17,7,21,10,10,11,29,28,30,26,29,12,21,10,29,14,18,24,1,14,6,28,7,1,5,25,21,16,11,6,12,20,30,30,20,10,15,17,28,28,27,23,1225.txt
0,0,0,0,0,20,19,0,22,0,0,16,30,27,16,0,9,27,16,24,10,6,6,19,12,7,6,7,3,28,0,24,16,7,0,25,22,0,14,5,5,11,14,13,7,3,9,11,3,3,10,9,16,16,1228.txt
0,0,0,0,0,20,4,0,7,0,0,16,30,27,16,17,7,7,16,10,10,6,5,20,24,24,28,17,3,27,16,23,2,21,16,12,13,9,15,24,30,12,3,8,11,12,9,11,9,8,25,26,7,7,1230.txt
0,0,0,0,0,20,19,0,22,0,0,16,30,27,16,0,9,27,1,24,1,27,6,24,23,7,6,7,3,28,0,24,3,3,0,25,22,0,14,5,3,11,6,6,7,30,15,26,20,18,10,9,16,17,1234.txt
0,0,0,0,0,20,19,0,22,0,0,16,30,27,16,0,9,27,16,24,23,4,6,6,3,7,6,7,3,28,0,24,3,3,0,25,23,0,13,6,3,12,6,6,11,3,3,2,3,3,10,9,16,16,1237.txt
1,15,1,1,9,1,3,3,18,20,1,8,17,7,1,1,1,1,1,3,5,11,19,24,23,19,29,13,8,16,1,8,6,9,29,1,5,30,30,15,11,2,10,18,27,1,10,27,20,18,10,9,16,1,1239.txt
1,29,26,9,11,7,15,28,18,5,19,8,17,7,21,18,6,6,28,20,30,26,7,16,20,15,29,14,11,24,6,6,4,4,10,19,25,5,9,22,11,6,4,5,29,28,19,18,16,25,21,23,30,23,1241.txt
0,0,0,0,0,20,20,0,22,0,0,16,30,27,16,0,9,27,18,24,23,4,6,6,3,7,6,7,26,28,16,22,3,3,3,2,2,2,15,2,3,0,6,6,0,3,3,2,3,3,30,27,24,24,1243.txt
1,13,26,9,12,5,1,1,1,1,1,8,1,7,1,10,10,4,25,20,3,3,4,13,17,17,16,14,16,17,26,14,5,9,29,1,5,28,21,7,11,9,1,1,29,20,20,8,27,19,30,28,30,23,1245.txt
0,0,0,0,1,26,19,0,23,0,1,8,1,7,1,23,23,26,16,9,12,6,19,20,14,17,29,14,10,5,7,27,13,11,24,1,9,30,30,16,0,2,3,9,22,11,12,13,24,24,13,24,22,20,1249.txt
0,0,0,0,0,26,19,0,23,0,0,17,0,28,16,0,9,27,16,24,10,6,27,19,12,22,23,19,3,19,0,24,16,7,0,25,0,0,0,0,7,12,14,12,11,1,10,19,13,12,10,9,16,16,1251.txt
0,16,2,6,25,30,10,29,27,26,8,30,21,25,26,18,6,6,1,18,5,27,19,10,18,10,17,27,14,8,7,29,2,21,20,1,5,5,9,13,30,4,13,13,29,20,8,7,26,23,29,27,10,10,1254.txt
0,0,0,0,0,20,19,0,22,0,0,16,30,27,16,0,9,27,16,24,23,4,6,6,3,7,6,7,3,28,0,24,3,3,0,25,23,0,13,6,3,5,6,6,4,3,2,22,3,3,18,18,26,16,1255.txt
0,0,0,0,0,20,20,0,22,0,0,16,30,27,16,0,9,27,18,24,23,4,6,6,3,7,6,7,0,28,5,5,3,3,4,13,14,17,10,30,3,0,6,6,0,5,3,2,5,5,6,7,24,24,1267.txt
1,13,26,1,4,5,1,1,18,1,19,8,17,7,21,4,27,4,16,20,23,4,1,6,3,10,29,5,16,24,1,11,6,9,5,1,5,3,3,16,11,4,10,18,30,20,3,22,21,23,30,28,22,20,1271.txt
1,15,14,9,25,8,15,1,1,22,10,8,9,7,1,18,6,6,25,28,4,27,18,12,17,20,29,14,11,24,6,6,4,4,22,5,5,5,9,10,11,4,4,5,29,24,24,26,29,27,30,29,6,6,1274.txt
0,0,0,0,0,20,19,0,22,0,0,16,30,27,16,0,9,27,16,24,23,4,6,6,3,7,6,7,3,28,0,24,3,3,0,25,23,0,13,6,3,12,6,6,11,5,3,2,5,5,6,5,5,5,1276.txt
1,29,26,1,4,5,14,1,27,5,28,30,21,21,26,11,19,11,25,20,30,26,29,13,17,15,17,27,16,8,1,28,1,17,24,1,27,25,21,16,11,18,10,18,25,20,19,10,26,23,25,30,30,23,1278.txt
0,0,0,0,0,20,19,0,22,0,0,16,30,27,17,0,9,28,16,27,23,4,6,6,3,7,6,7,3,28,0,0,3,3,0,25,17,0,13,6,3,12,6,6,11,5,3,2,5,5,29,30,22,20,1280.txt
27,25,27,9,20,5,1,12,19,22,22,30,21,19,5,4,27,4,29,16,30,26,1,12,26,10,21,28,7,8,14,18,5,29,15,18,5,3,3,17,21,4,24,16,30,30,20,10,13,16,25,28,27,23,1283.txt
1,15,19,9,1,5,15,28,18,6,19,8,17,7,21,18,6,6,30,28,30,22,7,16,26,20,29,5,11,24,6,6,4,4,7,4,27,5,9,17,11,5,4,5,29,28,9,11,16,15,21,27,7,7,1285.txt
0,0,0,0,0,20,4,0,17,0,0,16,30,27,16,6,15,18,8,15,19,18,16,27,9,3,5,3,21,3,22,24,21,18,27,23,23,7,13,6,2,1,5,14,14,14,4,4,10,9,17,17,22,20,1287.txt
0,0,0,0,0,20,19,0,22,0,0,16,30,27,16,0,9,27,16,24,23,4,6,6,3,7,6,7,3,28,0,24,3,3,0,25,23,0,13,6,3,12,6,6,11,3,3,2,3,3,6,7,9,9,1288.txt
2,29,23,8,30,5,1,1,18,5,19,8,17,7,21,11,19,11,25,29,30,26,29,13,17,10,29,14,22,24,10,28,1,17,22,10,11,28,20,13,11,25,10,18,8,23,19,9,26,23,25,30,27,23,1290.txt
1,30,27,17,11,5,1,28,18,6,19,8,17,7,21,30,26,15,30,20,30,26,7,16,20,11,29,14,16,24,28,14,9,13,29,19,25,25,25,16,11,19,11,17,28,28,23,17,12,15,25,23,30,23,1292.txt
0,0,0,0,0,20,19,0,22,0,0,16,30,27,16,0,9,27,30,24,28,27,6,24,23,7,6,7,3,28,0,24,3,3,0,25,23,0,13,6,3,12,6,6,11,30,3,2,13,12,12,9,17,16,1295.txt
27,13,26,9,4,1,1,1,19,1,6,4,4,3,3,4,27,4,4,18,5,1,19,1,17,5,4,6,7,7,1,11,3,9,5,1,5,3,3,3,3,4,6,6,5,22,3,2,6,26,30,22,13,13,1297.txt
0,0,0,0,0,20,19,0,22,0,0,16,30,27,16,0,9,27,16,24,23,4,6,6,3,7,6,7,3,28,0,24,3,3,0,25,23,0,13,6,3,12,6,6,11,28,6,6,13,15,6,7,7,7,1300.txt
29,15,1,9,25,8,8,8,19,19,6,4,24,3,3,26,22,29,1,14,5,27,19,30,28,28,4,6,7,7,20,17,6,12,8,1,5,27,23,3,29,4,26,28,4,9,21,17,13,16,16,4,4,4,1302.txt
0,0,0,0,0,20,19,0,22,0,0,16,30,27,16,0,9,27,16,24,23,4,6,6,3,7,6,7,3,28,0,24,3,3,0,25,23,0,13,6,3,12,6,6,11,3,3,2,3,3,19,20,28,16,1303.txt
0,0,0,0,0,20,19,0,22,0,0,16,30,27,16,0,9,27,16,24,23,4,6,6,3,7,6,7,3,28,21,24,3,3,26,22,23,6,13,6,3,12,17,14,11,5,3,2,5,5,17,17,13,13,1305.txt
0,0,0,0,0,26,20,0,23,0,0,0,0,28,16,0,9,27,18,24,10,6,27,19,12,22,23,26,0,18,0,24,13,7,0,25,23,0,13,6,0,15,3,13,17,3,28,27,3,3,10,9,16,30,1307.txt
0,16,0,6,0,30,10,0,15,26,0,12,12,12,16,14,12,20,16,11,23,4,5,6,24,2,28,2,3,2,5,5,23,8,4,12,13,11,10,26,30,13,17,14,16,13,4,25,9,8,6,7,22,20,1309.txt
0,0,0,0,0,20,19,0,22,0,0,16,30,27,16,0,9,27,16,24,23,4,6,6,3,7,6,7,3,28,0,24,3,3,0,25,23,0,13,6,3,12,6,6,11,3,3,2,3,3,10,9,16,29,1311.txt
0,0,0,0,0,20,19,0,22,0,0,16,30,27,16,0,9,27,16,24,23,4,6,6,3,7,6,7,3,28,0,24,3,3,0,25,0,0,0,0,3,3,6,6,3,3,3,2,3,3,10,9,16,16,1314.txt
0,0,0,0,0,20,19,0,22,0,0,16,30,27,16,0,9,27,16,24,10,6,27,19,12,9,9,11,3,10,0,24,16,7,0,25,23,0,13,6,5,12,21,23,11,3,0,0,3,3,10,9,16,16,1315.txt
0,0,0,0,0,26,20,0,23,0,0,0,0,28,16,0,9,27,18,24,10,6,27,25,12,22,23,19,28,19,16,22,16,7,16,12,13,11,15,28,7,15,14,12,17,3,11,27,3,3,12,9,17,29,1317.txt
0,16,0,6,0,3,19,0,22,26,0,12,12,12,16,0,9,27,16,24,23,4,6,6,3,7,6,7,3,28,16,22,3,3,16,12,13,11,15,26,3,12,6,6,11,3,3,2,3,3,6,7,22,20,1318.txt
0,0,0,0,0,20,19,0,22,0,0,16,30,27,16,0,9,27,16,24,23,4,6,6,3,7,6,7,3,28,0,24,3,3,0,25,23,0,13,6,3,12,6,6,11,3,3,2,3,3,10,9,16,16,1320.txt
0,0,0,0,0,20,19,0,22,0,0,16,30,27,16,0,9,27,16,24,23,4,6,6,3,7,6,7,3,28,0,24,3,3,0,25,23,0,13,6,3,12,6,6,11,3,3,2,3,3,10,9,16,16,1323.txt
0,0,0,0,0,20,19,0,22,0,0,16,30,27,16,0,9,27,16,24,23,4,6,6,3,7,6,7,3,28,0,24,3,3,0,25,23,0,13,6,3,12,6,6,11,5,3,2,5,5,10,9,16,16,1325.txt
0,16,0,6,0,3,20,26,22,27,14,12,12,12,16,0,9,27,18,24,10,6,6,19,12,7,6,7,28,28,16,7,13,7,16,12,13,9,15,24,27,15,3,12,17,3,12,27,3,3,6,7,9,9,1327.txt
0,0,0,0,0,20,4,0,14,0,0,16,30,27,16,17,12,20,16,11,23,4,5,6,24,24,28,17,3,27,5,5,23,20,4,12,13,11,10,26,30,12,19,14,11,12,3,2,8,7,21,26,7,7,1329.txt
0,16,10,6,7,3,20,26,23,27,14,12,12,12,24,0,9,27,30,24,21,26,27,16,21,9,9,11,28,10,16,7,16,7,16,12,13,9,15,24,8,15,15,13,17,28,11,20,15,16,7,8,9,9,1331.txt
0,0,0,0,0,20,19,0,22,0,0,16,30,27,16,0,9,27,16,24,23,4,6,6,3,7,6,7,3,28,0,24,3,3,0,25,23,0,13,6,3,12,6,6,11,3,3,2,3,3,17,17,9,9,1332.txt
0,0,0,0,0,20,19,0,22,0,0,16,30,27,16,0,9,27,16,24,10,6,6,19,12,7,6,7,3,28,0,24,13,7,0,25,23,0,13,6,0,12,3,13,11,8,11,20,20,18,30,24,22,20,1335.txt
27,15,19,9,1,5,1,1,5,19,29,14,14,3,3,4,27,10,11,29,10,6,18,21,12,20,14,16,24,21,8,16,1,9,12,1,5,27,23,12,21,6,24,16,30,21,8,7,26,23,30,26,9,9,1337.txt
0,0,0,0,0,20,19,0,22,0,0,16,30,27,16,0,9,27,16,24,23,4,6,6,3,7,6,7,3,28,0,24,3,3,0,25,23,0,13,6,3,12,6,6,11,3,3,2,3,3,21,30,11,11,1339.txt
0,0,0,0,0,20,19,0,22,0,0,16,30,27,16,0,9,27,16,27,23,4,6,6,3,7,6,7,3,28,0,24,3,3,0,25,23,0,13,6,3,12,6,6,11,4,3,2,4,4,11,10,18,16,1341.txt
0,0,0,0,0,20,19,0,22,0,0,16,30,27,16,0,9,27,16,24,23,4,6,6,3,7,6,7,3,28,0,24,3,3,0,25,23,0,13,6,3,12,6,6,11,11,3,2,24,24,17,17,22,20,1344.txt
0,0,0,0,0,20,19,0,22,0,0,16,30,27,16,0,9,27,16,24,23,4,6,6,3,7,6,7,3,28,0,24,3,3,0,25,23,0,13,6,3,12,3,12,11,11,12,27,24,24,10,9,16,16,1346.txt
0,0,0,0,0,20,19,0,22,0,0,16,30,27,16,0,9,27,4,24,5,1,6,15,17,7,6,7,3,6,0,24,3,3,0,0,23,0,13,6,3,10,6,6,6,20,3,2,20,18,6,7,13,13,1348.txt
1,25,27,9,11,8,1,28,18,6,19,28,17,9,21,4,27,15,14,18,15,9,7,16,19,10,29,5,14,24,10,28,9,16,23,6,25,18,16,8,11,6,11,19,29,28,23,17,16,15,25,23,30,23,1351.txt
0,0,0,0,0,20,19,0,22,0,0,16,30,27,17,0,9,27,16,27,23,4,6,6,3,7,6,7,3,28,0,24,3,3,0,25,23,0,13,6,3,12,6,6,11,5,3,2,5,5,1,1,1,16,1352.txt
0,0,0,0,0,20,20,0,22,0,0,16,30,27,16,0,9,27,16,24,10,6,27,19,12,9,9,11,27,10,5,5,16,7,4,12,13,11,10,28,5,11,14,13,7,30,8,12,17,16,10,11,16,30,1354.txt
0,0,0,0,0,20,19,0,22,0,0,16,30,27,16,0,9,27,16,24,23,4,6,6,3,7,6,7,3,28,5,5,3,3,4,12,13,11,10,26,3,12,6,6,11,3,3,2,3,3,6,7,9,9,1356.txt
0,0,0,0,0,20,19,0,22,0,0,16,30,27,16,0,9,27,16,24,12,6,6,19,0,7,6,7,3,28,2,26,16,11,18,29,15,8,15,29,5,30,21,23,19,5,8,7,5,5,17,17,22,20,1358.txt
0,16,2,6,7,30,10,2,7,27,14,12,12,12,2,6,7,7,8,10,27,25,5,2,24,2,30,2,2,2,5,5,21,18,4,12,13,9,10,24,16,25,19,14,15,12,3,2,9,8,6,7,7,7,1360.txt
0,0,0,0,0,20,19,0,22,0,0,16,30,27,16,0,9,27,16,24,23,4,6,6,3,7,6,7,3,28,18,25,3,3,18,14,15,12,15,28,3,12,6,6,11,3,3,5,3,3,30,28,24,24,1362.txt
0,0,0,0,0,20,19,0,22,0,0,16,30,27,16,0,9,27,16,24,23,4,6,6,3,7,6,7,3,28,23,24,3,3,26,22,23,15,13,6,3,12,18,14,11,5,3,2,5,5,17,17,9,9,1364.txt
0,0,0,0,0,20,19,0,22,0,0,16,30,27,16,0,9,27,16,24,23,4,6,6,3,7,6,7,3,28,0,24,3,3,0,25,23,0,13,6,3,12,6,6,11,3,3,2,3,3,24,23,7,7,1367.txt
0,15,1,1,1,8,1,10,5,19,4,5,5,3,3,23,23,26,16,9,10,6,17,21,12,6,8,16,18,15,20,20,13,7,7,1,5,27,23,12,0,14,3,13,12,3,9,11,3,3,25,5,5,5,1368.txt
0,0,0,0,0,20,19,0,22,0,0,16,30,27,16,0,9,27,30,24,5,27,6,12,19,7,6,7,3,28,0,24,3,3,0,25,23,0,13,6,3,12,6,6,11,30,3,2,13,13,21,26,9,9,1371.txt
0,16,2,6,7,3,20,2,22,26,14,12,12,12,2,0,9,27,18,24,10,6,27,19,12,9,9,11,28,10,16,22,10,7,16,12,13,11,15,28,8,15,15,3,17,3,12,27,3,3,30,24,22,20,1372.txt
0,0,0,0,0,20,20,0,22,0,0,16,30,27,16,0,9,27,16,24,10,6,6,19,12,7,6,7,28,28,5,5,13,7,4,29,15,17,10,29,0,12,21,23,11,3,12,20,3,3,6,5,5,5,1375.txt
0,16,0,6,0,3,20,0,23,26,0,25,12,12,16,0,0,27,18,0,10,0,11,19,12,9,9,11,28,10,2,25,13,7,18,13,14,12,15,30,0,0,3,11,0,3,12,27,3,3,6,7,13,13,1377.txt
0,0,0,0,0,20,19,0,22,0,0,16,30,27,16,0,9,27,29,24,5,11,6,12,21,7,6,7,3,28,16,22,13,7,16,12,13,11,2,28,0,12,3,13,11,30,28,7,20,18,6,7,22,20,1379.txt
0,0,0,0,4,20,19,0,22,0,4,5,5,3,3,23,23,26,16,9,23,20,12,17,3,20,8,16,4,21,6,6,3,3,7,1,5,5,9,18,3,6,18,24,29,3,3,2,3,3,30,28,9,9,1380.txt
0,16,2,6,7,3,20,2,22,27,14,12,12,12,2,0,9,27,18,24,12,6,6,19,0,7,6,7,28,28,5,5,16,11,4,29,15,9,10,24,5,15,21,23,17,5,0,0,5,5,6,7,22,20,1383.txt
0,0,0,0,0,20,19,0,22,0,0,16,30,27,16,0,9,27,16,24,23,4,6,6,3,7,6,7,3,28,22,24,3,3,27,23,23,7,13,6,3,12,19,14,11,3,29,6,3,3,22,26,7,7,1389.txt
27,15,1,1,25,15,1,12,19,20,22,30,21,3,3,30,26,29,30,18,30,26,24,15,16,10,18,28,7,8,11,14,9,13,29,1,25,27,23,12,21,12,29,29,11,28,23,17,15,15,25,26,27,23,1390.txt
0,0,0,0,0,20,19,0,22,0,0,16,30,27,16,0,9,27,16,24,23,4,6,6,3,7,6,7,3,28,22,24,3,3,27,23,23,7,13,6,3,12,5,14,11,3,3,2,3,3,6,7,9,9,1392.txt
0,0,0,0,0,26,19,0,23,0,0,0,0,28,16,0,9,27,16,24,12,6,27,19,0,9,9,11,3,10,16,22,13,11,16,12,13,11,15,26,0,12,3,12,11,3,12,13,3,3,19,20,28,1,1395.txt
0,0,0,0,0,20,19,0,22,0,0,16,30,27,16,0,9,27,16,24,23,4,6,6,3,7,6,7,3,28,0,24,3,3,0,25,23,0,13,6,3,12,6,6,11,5,3,2,5,5,17,17,13,13,1396.txt
0,0,0,0,0,20,19,0,22,0,0,16,30,27,16,0,9,27,16,24,23,4,6,6,3,7,6,7,3,28,16,23,3,3,16,12,13,9,15,24,3,12,6,6,11,3,3,2,3,3,25,23,7,7,1398.txt
0,0,0,0,0,20,19,0,22,0,0,16,30,27,16,0,9,27,16,24,23,4,6,6,3,7,6,7,3,28,0,24,3,3,0,25,23,0,13,6,3,12,6,6,11,20,3,2,20,18,7,8,9,9,1400.txt
0,16,0,6,0,3,20,0,22,26,0,12,12,12,16,0,9,27,18,24,23,4,6,6,3,7,6,7,28,28,16,23,3,3,16,12,13,9,15,24,3,15,6,6,17,3,3,2,3,3,6,5,5,5,1402.txt
0,0,0,0,0,20,19,0,22,0,0,16,30,27,16,0,9,27,16,24,23,4,6,6,3,7,6,7,3,28,22,24,3,3,27,23,23,7,13,6,3,12,17,14,11,3,3,22,3,3,22,28,9,9,1405.txt
0,0,0,0,0,20,19,0,22,0,0,16,30,27,16,0,9,27,16,24,23,4,6,6,3,7,6,7,3,28,0,24,3,3,0,25,23,0,13,6,3,12,6,6,11,5,3,2,5,5,1,1,1,16,1407.txt
0,0,0,0,0,20,19,0,22,0,0,16,30,27,16,0,9,27,16,24,23,4,6,6,3,7,6,7,3,28,0,24,3,3,0,25,23,0,13,6,3,12,6,6,11,3,3,2,3,3,6,7,9,9,1409.txt
1,29,26,1,11,5,15,28,27,5,20,7,20,21,26,18,6,6,3,1,30,22,7,10,15,20,17,27,11,8,6,6,4,4,10,1,27,5,9,12,11,14,4,5,12,28,24,15,16,15,8,5,5,5,1412.txt
0,0,0,0,0,20,19,0,22,0,0,16,30,27,16,0,9,27,16,24,23,4,6,6,3,7,6,7,3,28,0,24,3,3,0,25,23,0,13,6,3,12,6,6,11,20,3,2,20,18,6,7,22,20,1416.txt
0,16,0,6,0,3,19,2,22,27,16,25,12,12,16,0,9,27,16,24,23,4,6,19,3,7,6,7,3,28,5,5,16,11,4,12,13,11,10,26,5,24,21,23,8,3,0,0,3,3,6,7,9,9,1418.txt
0,0,0,0,0,20,19,0,22,0,0,16,30,27,16,0,9,27,1,24,5,11,6,24,4,7,6,7,3,28,0,24,3,3,0,25,23,0,13,6,3,12,6,6,11,30,3,2,19,30,10,9,16,16,1421.txt
0,0,0,0,0,20,4,0,14,0,0,16,30,27,16,6,12,20,8,11,19,17,15,27,8,24,30,3,21,27,22,24,23,20,27,23,23,7,13,6,30,13,18,14,15,13,4,25,9,8,6,7,9,9,1422.txt
0,0,0,0,0,20,19,0,22,0,0,16,30,27,16,0,9,27,16,24,23,4,6,6,3,7,6,7,3,28,0,24,3,3,0,25,23,0,13,6,3,12,6,6,11,5,3,2,5,5,10,9,16,16,1425.txt
0,0,0,0,0,20,20,0,22,0,0,16,30,27,19,0,9,27,0,27,12,0,6,25,0,7,6,7,28,28,2,26,13,0,18,13,14,8,15,30,0,15,3,12,17,5,12,27,5,5,5,5,5,5,1427.txt
0,0,0,0,0,20,19,0,22,0,0,16,30,27,16,0,9,27,16,24,23,4,6,6,3,7,6,7,3,28,0,24,3,3,0,25,23,0,13,6,3,12,6,6,11,5,3,2,5,5,1,1,1,16,1429.txt
0,0,0,0,0,20,19,0,22,0,0,16,30,27,16,0,9,27,16,24,23,4,6,6,3,7,6,7,3,28,0,24,3,3,0,25,23,0,13,6,3,12,6,6,11,3,3,2,3,3,6,5,5,5,1431.txt
0,0,0,0,25,20,19,1,5,0,8,5,25,3,3,10,10,29,25,20,5,1,19,12,17,17,8,21,7,21,1,11,3,3,29,1,5,30,30,16,3,12,6,6,11,20,3,2,20,18,30,29,9,9,1433.txt
0,16,0,6,0,3,20,2,22,26,14,12,12,12,16,0,9,27,18,24,23,4,6,6,3,7,6,7,0,28,0,24,3,3,0,25,23,0,13,6,3,15,6,6,17,3,3,2,3,3,6,5,5,5,1434.txt
0,16,0,6,0,3,20,2,22,26,14,12,12,12,16,0,9,27,18,24,23,4,6,6,3,7,6,7,0,28,0,24,3,3,0,25,23,0,13,6,3,15,6,6,17,3,3,2,3,3,6,5,5,5,1436.txt
0,0,0,0,0,26,20,0,23,0,0,0,0,28,16,27,9,23,18,24,10,6,27,19,12,23,24,19,28,19,5,5,13,7,4,12,13,9,10,24,0,0,21,23,0,9,0,0,16,15,6,7,7,7,1439.txt
0,0,0,0,0,20,19,0,22,0,0,16,30,27,16,0,9,27,16,24,23,4,6,6,3,7,6,7,3,28,0,24,3,3,0,25,23,0,13,6,3,12,6,6,11,3,3,2,3,3,6,5,5,5,1441.txt
0,0,0,0,0,20,19,0,22,0,0,16,30,27,16,0,9,27,16,24,23,4,6,6,3,7,6,7,3,28,0,24,3,3,0,25,23,0,13,6,3,12,6,6,11,5,3,2,5,5,27,28,22,20,1442.txt
0,0,0,0,0,20,19,0,22,0,0,16,30,27,16,0,9,27,16,24,23,4,6,20,3,7,6,7,3,28,5,5,13,7,4,29,15,13,10,28,0,12,21,23,11,5,25,20,5,5,7,5,5,5,1444.txt
0,16,2,6,7,3,19,23,22,26,14,12,12,12,24,0,9,27,16,24,29,6,27,19,13,9,9,11,3,10,16,22,13,11,16,12,13,9,15,24,27,12,21,23,11,3,0,0,3,3,6,7,9,9,1446.txt
0,16,0,6,0,3,19,2,22,26,14,12,29,11,16,0,9,27,16,24,23,4,6,6,3,7,6,7,3,28,18,26,3,3,18,13,14,8,15,30,3,12,17,14,11,3,3,2,3,3,17,17,22,20,1448.txt
0,0,0,0,0,20,19,0,22,0,0,16,30,27,16,0,9,27,16,24,23,4,6,6,3,7,6,7,3,28,0,24,3,3,0,25,23,0,13,6,3,12,6,6,11,5,3,2,5,5,10,9,16,16,1451.txt
0,0,0,0,0,20,19,0,22,0,0,16,30,27,16,0,9,27,16,24,23,4,6,6,3,7,6,7,3,28,0,24,3,3,0,25,23,0,13,6,3,12,6,6,11,3,3,2,3,3,6,7,9,9,1453.txt
0,29,26,1,4,5,15,1,18,5,19,8,17,7,21,18,6,6,29,16,21,26,29,10,21,11,15,14,16,12,6,6,3,3,22,7,5,5,9,16,3,12,19,14,11,30,19,9,19,30,25,30,30,23,1454.txt
27,15,1,1,1,5,1,1,5,3,27,5,5,3,3,10,10,29,12,18,30,22,19,12,18,8,8,16,14,14,20,8,6,27,7,1,9,27,23,12,20,4,8,27,4,24,25,27,6,27,13,24,21,21,1456.txt
0,0,0,0,0,26,20,0,23,0,0,0,0,28,16,0,9,27,18,24,10,6,27,19,12,23,24,19,28,19,16,23,13,7,17,12,13,9,15,24,0,15,21,23,17,3,0,0,3,3,6,7,7,7,1458.txt
0,0,0,0,0,20,19,0,22,0,0,16,30,27,16,0,9,27,16,24,23,4,6,6,3,7,6,7,3,28,0,24,3,3,0,25,23,0,13,6,3,12,6,6,11,3,3,2,3,3,10,9,16,28,1460.txt
0,0,0,0,23,20,20,10,5,0,8,5,5,3,3,10,10,29,16,16,23,4,19,6,3,17,8,16,7,9,7,8,3,3,29,1,9,30,30,16,3,12,6,6,11,20,3,2,20,18,30,13,22,20,1462.txt
0,0,0,0,0,20,19,0,22,0,0,16,30,27,16,0,9,27,16,24,23,4,6,6,3,7,6,7,3,28,0,24,3,3,0,25,23,0,13,6,3,12,6,6,11,3,3,2,3,3,10,9,16,16,1465.txt
0,0,0,0,0,20,19,0,22,0,0,16,30,27,16,0,9,27,10,24,23,4,6,6,3,7,6,7,3,28,0,24,3,3,0,25,0,0,0,0,3,12,6,6,11,3,3,2,3,3,10,9,16,16,1467.txt
0,0,0,0,0,20,19,0,22,0,0,16,30,27,16,0,9,27,16,24,23,4,6,6,3,7,6,7,3,28,23,24,3,3,26,22,23,15,13,6,3,12,5,15,11,20,3,2,22,22,6,7,13,13,1469.txt
1,13,26,1,4,5,15,1,18,1,19,8,17,7,21,18,6,6,3,12,30,26,19,13,21,20,29,14,11,24,6,6,4,4,7,7,5,5,9,16,11,14,4,5,26,30,19,8,26,23,21,30,30,23,1470.txt
2,29,23,8,28,5,1,1,26,5,11,6,7,23,22,23,23,26,2,9,2,16,1,27,9,17,8,16,24,14,1,16,5,9,20,3,3,3,3,14,20,13,22,25,15,13,3,22,9,8,24,28,22,20,1473.txt
0,0,0,0,0,20,19,0,22,0,0,16,30,27,17,0,9,27,16,27,23,4,6,6,3,7,6,7,3,28,0,24,3,3,0,25,23,0,13,6,3,12,6,6,11,5,3,2,5,5,22,28,22,20,1475.txt
0,0,0,0,0,20,20,0,22,0,0,16,30,27,16,0,9,27,18,24,23,4,6,19,3,7,6,7,28,28,5,5,3,3,4,29,15,17,10,29,3,0,21,23,0,3,0,0,3,3,6,7,22,20,1477.txt
0,0,0,0,0,26,19,0,23,0,0,0,0,28,16,0,9,27,16,24,10,6,27,20,12,22,23,19,3,19,16,22,13,7,16,12,13,9,15,24,0,12,21,23,11,3,28,12,3,3,6,7,11,11,1480.txt
1,15,1,1,25,1,14,1,18,3,19,8,1,7,21,10,10,29,4,19,5,1,19,12,17,11,29,5,10,24,7,8,6,9,5,7,9,30,30,16,11,21,10,18,27,24,8,7,28,27,29,24,22,20,1482.txt
0,0,0,0,0,20,19,0,22,0,0,16,30,27,16,0,9,27,16,24,23,4,6,6,3,7,6,7,3,28,22,24,3,3,27,23,23,7,13,6,3,12,5,15,11,3,3,6,3,3,6,7,9,9,1484.txt
0,0,0,0,0,26,19,0,23,0,0,0,0,28,16,0,9,27,16,24,10,6,27,20,12,9,9,11,3,10,0,24,13,7,0,25,23,0,13,6,0,12,3,13,11,3,28,12,3,3,6,7,7,7,1487.txt
0,0,0,0,0,20,19,0,22,0,0,16,30,27,16,0,9,27,16,24,10,6,6,19,12,7,6,7,3,28,5,5,16,7,16,12,13,11,15,26,5,12,21,23,11,3,0,0,3,3,17,17,13,13,1490.txt
0,0,0,0,0,20,19,0,22,0,0,16,30,27,16,0,9,27,16,24,23,4,6,6,3,7,6,7,3,28,0,24,3,3,0,25,23,0,13,6,3,12,6,6,11,3,3,2,3,3,6,7,9,9,1491.txt
1,15,19,17,1,5,1,28,18,6,19,8,17,7,21,30,26,15,30,12,30,26,24,16,26,20,29,14,18,5,8,14,9,13,7,4,25,18,16,8,11,14,10,18,12,28,24,18,16,15,25,26,27,23,1494.txt
27,13,26,1,11,1,1,1,19,1,6,30,4,3,3,4,27,13,29,20,5,11,4,1,21,5,4,6,16,7,9,19,6,12,15,1,27,25,20,3,29,22,29,28,26,30,21,9,15,16,25,22,23,23,1497.txt
0,0,0,0,0,20,19,0,22,0,0,16,30,27,16,0,9,27,16,24,23,4,6,6,3,7,6,7,3,28,0,24,3,3,0,25,23,0,13,6,3,12,6,6,11,3,3,2,3,3,6,7,9,9,1499.txt
0,0,0,0,0,20,19,0,22,0,0,16,30,27,16,0,9,27,16,24,23,4,6,6,3,7,6,7,3,28,0,24,3,3,0,25,0,0,0,0,3,3,6,6,3,3,3,2,3,3,6,7,0,0,1502.txt
0,0,0,0,0,20,19,0,22,0,0,16,30,27,16,0,9,27,16,24,23,4,6,19,3,7,6,7,3,28,5,5,13,3,4,12,13,9,10,24,0,12,21,23,11,3,0,0,3,3,6,7,11,11,1504.txt
0,13,26,9,4,8,15,1,18,1,19,8,17,7,21,18,6,6,29,12,5,27,19,13,21,20,29,14,18,24,6,6,3,3,7,1,21,5,9,12,3,6,6,6,29,30,24,9,15,11,25,5,5,5,1505.txt
0,0,0,0,0,20,19,0,22,0,0,16,30,27,16,0,9,27,16,24,23,4,6,6,3,7,6,7,3,28,0,24,3,3,0,25,23,0,13,6,3,12,6,6,11,3,3,2,3,3,6,7,22,20,1507.txt
0,13,26,1,4,5,14,1,18,20,19,8,17,7,21,4,27,29,25,20,3,3,19,12,17,11,29,5,10,5,1,11,3,3,5,1,5,30,30,16,3,23,5,14,26,20,3,2,22,22,30,28,13,13,1509.txt
0,0,0,0,0,20,19,0,22,0,0,16,30,27,16,0,9,27,16,27,23,4,6,6,3,7,6,7,3,28,0,24,3,3,0,25,23,0,13,6,3,12,6,6,11,5,3,2,5,5,10,9,16,16,1511.txt
0,0,0,0,0,20,19,0,22,0,0,16,30,27,16,0,9,27,16,24,23,4,6,6,3,7,6,7,3,28,5,5,3,3,4,30,15,12,10,27,3,12,6,6,11,3,3,2,3,3,6,7,9,9,1513.txt
0,0,0,0,0,20,19,0,22,0,0,16,30,27,16,0,9,27,16,24,23,4,6,6,3,7,6,7,3,28,16,22,3,3,16,12,13,11,15,26,3,12,6,6,11,3,3,2,3,3,7,8,9,9,1515.txt
0,0,0,0,0,26,19,0,23,0,0,0,0,28,16,0,9,27,25,24,30,26,27,15,17,23,24,19,3,19,0,24,16,7,0,25,23,0,13,6,26,12,15,13,11,20,11,12,23,22,21,24,7,7,1518.txt
0,16,2,6,7,3,19,2,22,26,14,12,12,12,2,0,9,27,16,24,23,4,6,6,3,7,6,7,3,28,5,5,3,3,4,12,13,11,10,26,3,12,6,6,11,3,3,2,3,3,6,5,5,5,1519.txt
0,0,0,0,0,20,19,0,22,0,0,16,30,27,16,0,9,27,16,24,23,4,6,6,3,7,6,7,3,28,0,0,3,3,0,25,23,0,13,6,3,12,6,6,11,3,3,2,3,3,30,28,9,9,1521.txt
0,0,0,0,0,20,4,0,7,0,0,16,30,27,16,6,7,7,16,10,23,4,5,6,24,4,30,4,3,4,22,24,21,18,27,23,23,7,13,6,2,12,5,15,11,13,4,25,9,8,6,7,13,13,1523.txt
0,0,0,0,0,20,19,0,22,0,0,16,30,27,16,0,9,27,16,24,23,4,6,6,3,7,6,7,3,28,0,24,3,3,0,25,23,0,13,6,3,12,6,6,11,5,3,2,5,5,17,17,9,9,1526.txt
0,16,2,6,7,3,20,2,22,23,14,23,12,12,2,0,9,27,18,24,23,4,6,6,3,7,6,7,28,28,16,7,3,3,3,12,13,9,15,24,3,16,6,6,18,3,3,2,3,3,6,7,9,9,1528.txt
1,13,26,1,4,1,1,1,18,1,19,8,17,7,21,30,26,11,30,12,5,27,4,28,21,10,29,14,18,24,1,14,30,13,7,1,25,25,21,12,11,18,10,18,25,30,22,10,15,29,25,26,27,23,1529.txt
0,0,0,0,0,26,4,0,7,0,0,0,0,28,16,17,7,7,16,10,10,6,13,20,9,24,2,3,3,26,23,0,2,21,26,22,23,15,13,6,15,29,13,12,1,13,25,27,9,8,24,24,7,7,1532.txt
0,16,0,6,0,3,19,2,22,26,14,12,12,12,16,0,9,27,16,24,23,4,6,6,3,7,6,7,3,28,5,5,3,3,4,12,13,10,10,25,3,12,6,6,11,3,3,2,3,3,6,7,9,9,1534.txt
1,25,25,17,18,9,15,1,18,22,19,8,17,7,21,18,6,6,25,16,13,11,1,13,17,10,29,14,11,24,6,6,4,4,7,18,7,5,9,16,11,23,4,5,27,20,20,29,20,18,29,5,5,5,1536.txt
0,16,2,6,7,3,10,2,14,27,14,12,12,12,2,6,8,8,8,11,2,18,16,2,8,2,5,2,2,2,5,5,15,20,4,29,15,8,10,30,2,8,18,14,8,14,4,24,10,9,17,17,24,24,1538.txt
0,0,0,0,0,20,19,0,22,0,0,16,30,27,16,0,9,27,16,24,23,4,6,6,3,7,6,7,3,28,0,24,3,3,0,25,23,0,13,6,3,12,6,6,11,5,3,2,5,5,17,17,0,0,1540.txt
0,0,0,0,0,20,19,0,22,0,0,16,30,27,16,0,9,27,16,24,23,4,6,6,3,7,6,7,3,28,0,24,3,3,0,25,23,0,13,6,3,12,6,6,11,8,3,2,20,18,10,9,16,16,1543.txt
0,0,0,0,0,20,19,0,22,0,0,16,30,27,16,0,9,27,16,24,23,4,6,6,3,7,6,7,3,28,0,24,3,3,0,25,23,0,13,6,3,12,6,6,11,3,3,2,3,3,6,7,9,9,1545.txt
27,15,1,9,1,8,1,12,5,25,29,14,14,18,5,4,27,29,27,18,23,20,19,17,30,8,14,23,14,15,10,11,6,9,5,5,5,27,23,12,19,4,24,28,29,30,3,22,13,29,21,28,0,0,1546.txt
0,0,0,0,0,20,19,0,22,0,0,16,30,27,16,0,9,27,16,24,23,4,6,6,3,7,6,7,3,28,0,24,3,3,0,25,23,0,13,6,3,12,6,6,11,5,3,2,5,5,27,28,22,20,1548.txt
0,0,0,0,0,20,19,0,22,0,0,16,30,27,16,0,9,27,16,24,23,4,6,6,3,7,6,7,3,28,0,24,3,3,0,25,23,0,13,6,3,12,6,6,11,3,3,2,3,3,6,7,11,11,1551.txt
0,0,0,0,0,20,19,0,22,0,0,16,30,27,16,0,9,28,16,24,0,0,27,19,0,9,9,11,3,10,2,2,0,0,2,13,14,8,15,23,0,12,3,9,11,5,12,27,5,5,17,17,13,13,1552.txt
0,16,0,6,0,3,19,0,22,26,0,12,12,12,16,0,9,27,16,24,23,4,6,6,3,7,6,7,3,28,18,25,3,3,18,30,15,17,15,28,3,12,6,6,11,3,3,2,3,3,6,7,9,9,1556.txt
0,0,0,0,0,26,20,0,23,0,0,0,0,28,16,0,9,27,18,24,12,0,27,19,0,9,9,11,0,10,0,24,16,11,0,25,0,0,0,0,5,16,21,23,18,3,0,0,3,3,19,20,28,1,1558.txt
0,0,0,0,0,20,19,0,22,0,0,16,30,27,16,0,9,27,16,24,23,4,6,6,3,7,6,7,3,28,0,24,3,3,0,25,23,0,13,6,3,12,6,6,11,5,3,2,5,5,17,17,22,20,1561.txt
0,0,0,0,0,20,19,0,22,0,0,16,30,27,16,0,9,27,16,24,23,4,6,6,3,7,6,7,3,28,0,24,3,3,0,25,23,0,13,6,3,12,6,6,11,0,3,2,0,0,1,1,1,16,1563.txt
0,0,0,0,0,20,20,0,22,0,0,16,30,27,16,0,9,27,18,24,0,7,27,19,13,9,9,11,28,10,5,5,13,0,2,11,12,8,15,30,0,15,21,23,17,5,0,0,5,5,17,17,22,20,1565.txt
0,0,0,0,0,20,20,0,22,0,0,16,30,27,16,0,9,27,1,24,21,26,6,15,19,7,6,7,28,28,16,22,3,3,16,12,13,9,15,24,3,16,6,6,18,30,3,2,13,29,6,7,9,9,1567.txt
0,0,0,0,0,20,19,0,22,0,0,16,30,27,16,0,9,27,16,24,8,4,6,6,3,7,6,7,3,28,0,24,3,3,0,25,23,0,13,6,3,12,7,7,11,3,2,22,3,3,10,9,16,16,1570.txt
0,0,0,0,0,20,19,0,22,0,0,16,30,27,17,0,9,27,16,27,23,4,6,6,3,7,6,7,3,28,0,24,3,3,0,25,23,0,13,6,3,12,6,6,11,5,3,2,5,5,6,7,22,20,1572.txt
0,0,0,0,0,20,19,0,22,0,0,16,30,27,16,0,9,27,16,24,23,4,6,19,3,7,6,7,3,28,5,5,13,3,4,12,13,11,10,29,0,12,3,13,11,3,8,7,3,3,17,5,5,5,1574.txt
0,0,0,0,0,20,19,0,22,0,0,16,30,27,16,0,9,27,16,24,23,4,6,6,3,7,6,7,3,28,0,24,3,3,0,25,23,0,13,6,3,12,6,6,11,3,3,2,3,3,17,17,22,20,1581.txt
0,0,0,0,0,26,20,0,23,0,0,0,0,28,16,0,9,27,18,24,10,6,27,19,12,9,9,11,28,10,18,7,16,7,18,11,12,9,15,24,8,16,16,12,18,20,11,27,20,18,12,11,17,30,1583.txt
0,16,0,6,0,3,19,0,22,27,0,12,12,12,16,0,9,27,19,24,27,25,6,2,3,7,6,7,2,28,5,5,3,3,4,12,13,11,10,26,3,13,18,14,15,3,4,24,3,3,25,28,7,7,1585.txt
27,15,8,1,1,5,1,1,26,14,4,5,5,4,22,11,11,4,16,18,23,4,1,6,3,8,8,16,7,14,1,27,3,9,12,1,9,3,3,12,3,2,17,14,22,24,3,2,6,6,5,6,13,13,1587.txt
0,0,0,0,0,20,19,0,22,0,0,16,30,27,16,0,9,27,16,24,23,4,6,6,3,7,6,7,3,28,0,24,3,3,0,25,23,0,13,6,3,12,6,6,11,5,2,22,5,5,6,7,9,9,1589.txt
0,0,0,0,0,26,20,0,23,0,0,0,0,28,16,0,9,27,30,24,1,27,27,24,23,23,24,19,27,19,16,22,13,7,16,12,13,9,15,24,0,15,3,13,17,17,1,17,15,15,14,11,19,29,1590.txt
0,0,0,0,0,20,19,0,22,0,0,16,30,27,16,0,9,27,16,24,23,4,6,20,3,7,6,7,3,28,0,0,13,3,0,25,23,0,13,6,0,12,3,12,11,3,12,27,3,3,27,24,13,13,1594.txt
0,0,0,0,0,20,19,0,22,0,0,16,30,27,16,0,9,27,16,24,23,4,6,6,3,7,6,7,3,28,0,24,3,3,0,25,23,0,13,6,3,12,6,6,11,30,3,2,11,29,17,17,22,20,1596.txt
0,0,0,0,0,20,19,0,22,0,0,16,30,27,16,0,9,27,16,24,23,4,6,6,3,7,6,7,3,28,0,24,3,3,0,25,23,0,13,6,3,12,6,6,11,3,3,2,3,3,27,30,0,0,1598.txt
0,0,0,0,0,20,19,0,22,0,0,16,30,27,16,0,9,27,16,24,23,4,6,6,3,7,6,7,3,28,22,0,3,3,27,23,23,7,13,6,3,12,5,4,11,5,3,2,5,5,21,30,9,9,1600.txt
0,16,0,6,0,3,19,0,22,26,0,12,29,26,16,0,9,27,16,24,23,4,6,6,3,7,6,7,3,28,5,5,3,3,4,30,15,8,10,29,3,12,18,14,11,3,3,2,3,3,13,28,22,20,1602.txt
0,0,0,0,0,20,19,0,22,0,0,16,30,27,17,0,9,27,16,27,23,4,6,6,3,7,6,7,3,28,0,24,3,3,0,25,23,0,13,6,3,3,6,6,3,5,3,2,5,5,5,6,22,20,1604.txt
0,0,0,0,0,20,19,0,22,0,0,16,30,27,16,0,9,27,16,24,23,4,6,6,3,7,6,7,3,28,5,5,3,3,4,12,13,11,10,28,3,12,3,13,11,3,25,20,3,3,6,7,22,20,1605.txt
0,0,0,0,0,20,19,0,22,0,0,16,30,27,16,0,9,27,16,24,23,4,6,6,3,7,6,7,3,28,0,24,3,3,0,25,23,0,13,6,3,12,6,6,11,3,3,2,3,3,25,27,9,9,1608.txt
0,0,0,0,0,20,19,0,22,0,0,16,30,27,16,0,9,27,16,24,23,4,6,6,3,7,6,7,3,28,0,24,3,3,0,25,23,0,13,6,3,12,6,6,11,3,3,2,3,3,27,28,0,0,1610.txt
0,0,0,0,0,20,19,0,22,0,0,16,30,27,16,0,9,27,16,27,23,4,6,6,3,7,6,7,3,28,21,0,3,3,26,22,23,6,13,6,3,29,17,14,15,3,3,2,3,3,17,17,22,20,1612.txt
0,0,0,0,0,20,19,0,22,0,0,16,30,27,16,0,9,27,16,24,23,4,6,6,3,7,6,7,3,28,0,24,3,3,0,25,23,0,13,6,3,10,6,6,6,20,3,2,20,18,11,10,18,16,1615.txt
0,0,0,0,0,26,20,0,23,0,0,0,0,28,16,0,9,27,18,24,0,6,27,19,0,9,9,11,0,10,18,26,13,11,18,29,15,8,15,30,0,0,21,23,0,5,0,0,5,5,17,17,22,20,1616.txt
0,0,0,0,0,26,19,0,23,0,0,0,0,28,16,0,9,27,16,24,10,6,27,19,12,9,9,11,3,10,16,22,13,7,16,12,13,11,15,26,0,30,3,13,14,3,12,13,3,3,17,17,9,9,1618.txt
0,0,0,0,0,20,19,0,22,0,0,16,30,27,16,0,9,27,16,24,23,4,6,6,3,7,6,7,3,28,23,24,3,3,28,24,23,15,13,6,3,12,19,14,11,20,3,2,26,23,27,30,11,11,1622.txt
0,0,0,0,0,20,19,0,22,0,0,16,30,27,17,0,9,27,16,27,23,4,6,6,3,7,6,7,3,28,0,24,3,3,0,25,23,0,13,6,3,12,6,6,11,3,3,2,3,3,17,17,13,13,1623.txt
0,0,0,0,0,20,19,0,22,0,0,16,30,27,16,0,9,27,16,24,23,4,6,6,3,7,6,7,3,28,0,24,3,3,0,25,23,0,13,6,3,12,6,6,11,11,3,2,24,24,10,9,16,16,1626.txt
0,0,0,0,0,20,19,0,22,0,0,16,30,27,16,0,9,27,16,24,23,4,6,6,3,7,6,7,3,28,0,24,3,3,0,25,23,0,13,6,3,12,6,6,11,0,3,22,0,0,1,1,1,16,1629.txt
0,0,0,0,0,20,19,0,22,0,0,16,30,27,16,0,9,27,16,24,23,4,6,20,3,7,6,7,3,28,22,24,13,3,27,23,23,7,13,6,0,12,3,21,11,0,8,7,0,0,17,17,13,13,1631.txt
0,0,0,0,0,20,19,0,22,0,0,16,30,27,16,0,9,27,16,24,23,4,6,6,3,7,6,7,3,28,0,24,3,3,0,25,23,0,13,6,3,12,6,6,11,3,3,2,3,3,6,7,9,9,1632.txt
0,16,2,6,7,3,19,2,22,26,14,12,11,26,2,0,9,27,16,24,23,4,6,6,3,7,6,7,3,28,5,5,3,3,4,29,15,8,10,30,3,12,6,6,11,5,3,2,5,5,7,5,5,5,1637.txt
0,0,0,0,0,20,19,0,22,0,0,16,30,27,16,0,9,27,16,24,23,4,6,6,3,7,6,7,3,28,18,25,3,3,18,29,15,13,2,27,3,12,6,6,11,3,3,22,3,3,27,28,9,9,1639.txt
27,15,7,1,25,1,3,18,19,1,28,30,21,3,3,10,10,4,1,3,5,11,4,24,4,14,7,8,10,8,11,8,6,9,5,7,5,28,21,16,22,23,24,27,27,8,1,8,17,16,10,9,16,1,1641.txt
0,13,26,1,4,1,3,3,5,1,27,4,22,3,3,11,28,4,25,3,5,11,4,24,4,10,17,27,7,8,11,9,3,3,6,1,9,24,18,12,3,12,6,6,11,20,15,1,21,19,10,9,16,17,1643.txt
0,0,0,0,0,20,19,0,22,0,0,16,30,27,16,0,9,27,16,24,23,4,6,6,3,7,6,7,3,28,0,24,3,3,0,25,23,0,13,6,3,12,6,6,11,5,3,2,5,5,17,17,22,20,1645.txt
0,0,0,0,0,20,19,0,22,0,0,16,30,27,16,0,9,27,16,24,23,4,6,6,3,7,6,7,3,28,0,24,3,3,0,25,23,0,13,6,3,12,6,6,11,3,3,22,3,3,6,5,5,5,1647.txt
0,0,0,0,0,20,19,0,22,0,0,16,30,27,16,0,9,27,16,24,23,4,6,6,3,7,6,7,3,28,0,24,3,3,0,25,23,0,13,6,3,12,6,6,11,3,3,2,3,3,6,5,5,5,1650.txt
0,0,0,0,0,26,20,0,23,0,0,0,0,28,16,0,9,27,18,24,10,6,27,19,12,9,9,11,28,10,16,22,13,7,16,12,13,11,2,28,0,15,3,12,17,3,8,7,3,3,6,5,5,5,1652.txt
0,0,0,0,0,26,19,0,23,0,0,0,0,0,17,0,9,27,16,7,12,0,0,19,0,0,27,0,3,0,0,24,16,0,0,25,23,0,13,6,5,12,21,23,11,0,8,7,0,0,11,10,18,16,1654.txt
0,0,0,0,0,20,19,0,22,0,0,16,30,27,16,0,9,27,16,24,23,4,6,20,3,7,6,7,3,28,22,24,13,3,27,23,23,7,13,6,0,12,21,23,11,0,12,27,0,0,17,17,13,13,1655.txt
0,0,0,0,0,20,19,0,22,0,0,16,30,27,16,0,9,27,16,24,23,4,6,6,3,7,6,7,3,28,0,24,3,3,0,25,23,0,13,6,3,12,6,6,11,3,3,2,3,3,10,9,16,16,1657.txt
0,0,0,0,0,20,19,0,22,0,0,16,30,27,16,0,9,27,16,24,23,4,6,6,3,7,6,7,3,28,0,24,3,3,0,25,23,0,13,6,3,12,6,6,11,3,3,2,3,3,6,7,9,9,1660.txt
0,16,2,6,7,3,19,2,22,26,14,12,12,12,2,0,9,27,16,24,23,4,6,6,3,7,6,7,3,28,13,5,3,3,4,12,13,9,10,24,3,12,19,14,11,3,3,2,3,3,25,23,7,7,1662.txt
0,0,0,0,0,20,19,0,22,0,0,16,30,27,16,0,9,27,16,24,23,4,6,6,3,7,6,7,3,28,0,24,3,3,0,25,23,0,13,6,3,12,6,6,11,3,3,2,3,3,6,7,9,9,1663.txt
0,0,0,0,0,26,20,0,23,0,0,0,0,28,16,0,9,27,18,24,0,7,27,19,13,9,9,11,28,10,16,22,13,11,16,12,13,11,15,26,0,1,21,23,14,3,0,0,3,3,0,0,22,20,1666.txt
0,16,0,6,0,30,10,0,17,27,0,12,12,12,16,6,15,18,8,15,19,17,13,26,9,4,30,4,5,4,22,24,21,18,27,23,23,7,13,6,15,30,5,14,14,13,4,25,9,8,27,28,22,20,1667.txt
0,0,0,0,0,20,19,0,22,0,0,16,30,27,16,0,9,27,16,24,23,4,6,6,3,7,6,7,3,28,0,24,3,3,0,25,23,0,13,6,3,12,6,6,11,5,3,2,5,5,5,13,22,20,1669.txt
0,0,0,0,0,26,19,0,23,0,0,0,0,28,16,0,9,27,16,24,10,6,27,19,12,9,9,11,3,10,0,24,16,7,0,25,0,0,0,0,5,3,21,23,3,3,11,20,3,3,14,9,19,16,1671.txt
0,0,0,0,0,20,19,0,22,0,0,16,30,27,16,0,9,27,16,24,23,4,6,6,3,7,6,7,3,28,0,24,3,3,0,25,23,0,13,6,3,12,6,6,11,20,3,2,20,18,11,10,18,16,1673.txt
0,0,0,0,0,20,19,0,22,0,0,16,30,27,16,0,9,27,16,24,23,4,6,20,3,7,6,7,3,28,0,24,16,3,0,25,23,0,13,6,5,12,21,23,11,3,12,27,3,3,6,7,9,9,1676.txt
0,0,0,0,0,20,19,0,22,0,0,16,30,27,16,0,9,27,16,24,23,4,6,6,3,7,6,7,3,28,22,24,3,3,27,23,23,7,13,6,3,12,5,14,11,3,3,2,3,3,24,28,13,13,1677.txt
0,0,0,0,0,20,19,0,22,0,0,16,30,27,16,0,9,27,16,24,23,4,6,6,3,7,6,7,3,28,0,24,3,3,0,25,23,0,4,4,3,12,6,6,11,3,3,2,3,3,22,28,22,20,1680.txt
27,15,19,1,4,5,1,12,4,19,6,5,5,25,4,11,11,13,25,28,30,22,18,1,1,6,4,6,18,7,1,16,14,12,21,1,5,3,3,3,4,4,22,25,4,20,7,10,21,23,25,5,5,5,1682.txt
27,15,1,1,1,1,1,12,5,1,4,5,5,3,3,10,10,4,25,16,5,11,1,12,17,8,8,16,7,21,11,8,6,9,29,1,9,3,3,7,20,12,8,16,11,24,12,27,6,27,27,24,22,20,1684.txt
0,0,0,0,0,20,19,0,22,0,0,16,30,27,16,0,9,28,16,24,23,4,6,6,3,7,6,7,3,28,0,24,3,3,0,25,23,0,13,6,3,12,6,6,11,5,3,2,5,5,1,1,1,16,1686.txt
0,0,0,0,0,20,19,0,22,0,0,16,30,27,16,0,9,27,16,24,23,4,6,6,3,7,6,7,3,28,0,24,3,3,0,25,23,0,13,6,3,3,6,6,3,3,3,2,3,3,10,9,16,16,1692.txt
0,0,0,0,0,20,19,0,22,0,0,16,30,27,16,0,9,27,16,24,23,4,6,6,3,7,6,7,3,28,0,24,3,3,0,25,0,0,0,0,3,12,6,6,11,20,3,2,20,18,13,13,22,20,1694.txt
0,0,0,0,0,20,19,0,22,0,0,16,30,27,16,0,9,28,16,24,23,4,6,19,3,7,6,7,3,28,0,24,16,3,0,25,23,0,13,6,5,12,21,23,11,5,11,20,5,5,6,7,0,0,1696.txt
0,0,0,0,0,20,19,0,22,0,0,16,30,27,16,0,9,27,16,24,23,4,6,6,3,7,6,7,3,28,0,24,3,3,0,25,23,0,13,6,3,12,6,6,11,5,3,2,5,5,13,30,9,9,1698.txt
0,0,0,0,0,20,19,0,22,0,0,16,30,27,16,0,9,27,16,27,23,4,6,6,3,7,6,7,3,28,0,0,3,3,0,25,23,0,4,4,3,12,6,6,11,4,3,2,4,4,29,30,22,20,1699.txt
0,0,0,0,0,20,19,0,22,0,0,16,30,27,16,0,9,27,16,24,23,4,6,6,3,7,6,7,3,28,0,24,3,3,0,25,23,0,13,6,3,12,6,6,11,24,3,2,6,27,17,17,13,13,1701.txt
0,0,0,0,0,20,19,0,22,0,0,16,30,27,16,0,9,27,16,24,23,4,6,6,3,7,6,7,3,28,0,24,3,3,0,25,23,0,13,6,3,12,6,6,11,5,3,2,5,5,27,28,22,20,1705.txt
0,15,7,1,9,1,3,3,5,1,28,4,22,3,3,10,10,4,1,3,5,27,1,24,4,10,17,27,7,8,11,8,3,3,29,1,9,3,3,16,3,10,6,6,6,24,3,2,6,27,1,1,1,16,1707.txt
0,0,0,0,0,20,19,0,22,0,0,16,30,27,16,0,9,27,16,24,23,4,6,6,3,7,6,7,3,28,0,24,3,3,0,25,0,0,0,0,3,3,6,6,3,5,3,2,5,5,10,9,16,16,1709.txt
0,0,0,0,0,20,19,0,22,0,0,16,30,27,16,0,9,27,16,24,23,4,6,6,3,7,6,7,3,28,0,24,3,3,0,25,23,0,13,6,3,12,6,6,11,3,3,2,3,3,10,9,16,16,1715.txt
0,0,0,0,0,20,19,0,22,0,0,16,30,27,16,0,9,27,16,24,23,4,6,20,3,7,6,7,3,28,5,5,13,3,4,12,13,11,10,26,0,12,3,21,11,3,25,20,3,3,30,24,22,20,1717.txt
0,0,0,0,0,20,19,0,22,0,0,16,30,27,16,0,9,27,16,24,23,4,6,6,3,7,6,7,3,28,0,24,3,3,0,25,18,0,5,5,3,26,6,6,7,1,3,2,20,18,10,9,16,17,1720.txt
0,0,0,0,0,26,19,0,23,0,0,0,0,28,16,0,9,27,16,24,10,6,27,19,12,9,9,11,3,10,0,24,16,7,0,25,23,0,13,6,5,12,21,23,11,0,0,0,0,0,10,9,16,16,1723.txt
0,0,0,0,0,26,19,0,23,0,0,0,0,28,16,0,9,27,16,24,10,6,27,19,12,9,9,11,3,10,0,24,13,7,0,25,23,0,13,6,0,12,3,12,11,3,11,27,3,3,12,9,17,30,1725.txt
0,0,0,0,0,26,19,0,23,0,0,20,0,28,16,0,9,27,16,24,12,6,27,19,0,9,9,11,3,10,0,24,12,11,0,25,23,0,13,6,7,12,15,12,11,7,11,13,7,10,1,1,1,16,1727.txt
0,0,0,0,0,20,19,0,22,0,0,16,30,27,16,0,9,27,16,24,23,4,6,6,3,7,6,7,3,28,5,5,3,3,4,29,15,13,10,28,3,12,6,6,11,3,2,2,3,3,7,8,9,9,1728.txt
0,0,0,0,0,20,19,0,22,0,0,16,30,27,16,0,9,27,16,24,10,6,6,19,12,7,6,7,3,28,0,24,16,7,0,25,0,0,0,0,7,12,14,3,11,3,8,7,3,3,6,7,0,0,1732.txt
0,0,0,0,0,20,19,0,22,0,0,16,30,27,16,0,9,27,16,24,23,4,6,6,3,7,6,7,3,28,0,24,3,3,0,25,23,0,13,6,3,12,6,6,11,3,3,2,3,3,17,17,22,20,1734.txt
0,0,0,0,0,20,19,0,22,0,0,16,30,27,16,0,9,27,16,27,23,4,6,6,3,7,6,7,3,28,0,24,3,3,0,25,23,0,4,4,3,12,7,6,11,5,2,22,5,5,5,13,22,20,1735.txt
0,0,0,0,0,20,19,0,22,0,0,16,30,27,16,0,9,27,16,27,23,4,6,6,3,7,6,7,3,28,0,24,3,3,0,25,23,0,13,6,3,12,6,6,11,5,2,22,5,5,24,19,0,0,1737.txt
0,0,0,0,0,20,19,0,22,0,0,16,30,27,16,0,9,27,16,24,23,4,6,6,3,7,6,7,3,28,0,24,3,3,0,25,23,0,13,6,3,12,6,6,11,3,3,2,3,3,6,7,9,9,1739.txt
0,16,0,6,0,3,19,0,22,26,0,12,12,12,16,0,9,27,16,24,10,6,6,19,12,7,6,7,3,28,16,22,16,7,16,12,13,11,15,26,5,12,21,23,11,3,0,0,3,3,6,7,11,11,1744.txt
0,16,0,6,0,3,20,2,22,26,14,12,12,12,16,0,9,27,30,24,21,26,6,11,19,7,6,7,2,28,5,5,3,3,4,12,13,9,10,24,3,25,13,8,8,28,9,11,16,30,6,7,24,24,1745.txt
0,0,0,0,0,20,19,0,22,0,0,16,30,27,17,0,9,27,16,27,23,4,6,6,3,7,6,7,3,28,22,24,3,3,27,23,23,7,13,6,3,12,5,4,11,5,3,22,5,5,24,28,13,13,1747.txt
0,0,0,0,0,20,19,0,22,0,0,16,30,27,16,0,9,27,16,24,23,4,6,6,3,7,6,7,3,28,5,5,3,3,4,13,14,13,10,30,3,12,7,6,11,5,2,22,5,5,5,5,5,5,1749.txt
0,0,0,0,0,20,20,0,22,0,0,16,30,27,16,0,9,27,18,24,23,4,6,6,3,7,6,7,28,28,5,5,3,3,4,12,13,11,10,26,3,15,6,6,17,3,3,2,3,3,6,7,22,20,1751.txt
0,16,2,6,7,3,10,2,13,27,14,12,29,11,2,6,8,8,8,11,19,18,16,2,8,2,30,2,2,2,5,5,15,20,4,29,15,8,10,30,2,13,17,14,8,14,4,24,10,9,17,17,10,10,1755.txt
0,0,0,0,0,20,19,0,22,0,0,16,30,27,16,0,9,27,16,24,10,6,27,19,12,9,9,11,3,10,5,5,13,7,16,12,13,11,15,28,0,3,21,23,3,3,0,0,3,3,10,9,16,16,1759.txt
0,0,0,0,0,20,19,0,22,0,0,16,30,27,16,0,9,27,16,24,23,4,6,6,3,7,6,7,3,28,0,24,3,3,0,25,23,0,13,6,3,12,6,6,11,3,29,2,3,3,6,5,5,5,1762.txt
27,15,1,1,25,1,14,1,19,3,6,30,4,3,3,4,27,29,3,1,5,24,19,1,18,5,4,6,10,7,7,11,14,12,5,1,8,30,30,3,29,22,26,28,26,20,1,9,20,18,25,5,5,5,1764.txt
0,17,2,6,7,30,10,2,2,27,16,25,29,11,2,17,2,2,2,2,2,18,2,27,2,24,28,3,21,26,5,5,2,21,2,13,14,13,15,30,2,13,13,9,1,14,25,27,10,9,17,17,21,21,1765.txt
1,25,27,17,11,5,15,29,6,22,20,7,20,19,5,18,6,6,25,18,30,26,12,10,17,20,17,27,14,8,6,6,14,23,15,18,5,5,9,12,11,14,10,18,12,20,24,29,20,18,29,5,5,5,1769.txt
0,0,0,0,0,20,19,0,22,0,0,16,30,27,16,0,9,27,16,24,23,4,6,6,3,7,6,7,3,28,0,24,3,3,0,25,23,0,13,6,3,12,6,6,11,3,3,5,3,3,6,7,24,24,1771.txt
0,0,0,0,0,26,19,0,23,0,0,0,0,28,16,0,9,27,16,24,10,6,27,19,12,22,23,19,3,19,0,24,13,7,0,25,23,0,13,6,0,12,21,23,11,3,0,0,3,3,6,7,9,9,1774.txt
0,0,0,0,0,20,19,0,22,0,0,16,30,27,16,0,9,27,16,24,23,4,6,20,3,7,6,7,3,28,16,22,13,3,16,12,13,11,2,26,0,12,3,12,11,3,8,7,3,3,6,7,22,20,1775.txt
0,0,0,0,0,20,19,0,22,0,0,16,30,27,16,0,9,27,16,24,23,4,6,6,3,7,6,7,3,28,0,24,3,3,0,25,23,0,13,6,3,12,6,6,11,8,3,2,15,17,10,9,16,17,1778.txt
0,0,0,0,0,20,19,0,22,0,0,16,30,27,16,0,9,28,16,27,23,4,6,6,3,7,6,7,3,28,5,5,3,3,4,29,15,13,10,23,3,12,6,6,11,3,2,22,3,3,13,28,22,20,1780.txt
0,0,0,0,0,20,19,0,22,0,0,16,30,27,16,0,9,27,16,24,23,4,6,6,3,7,6,7,3,28,0,24,3,3,0,25,23,0,13,6,3,12,6,6,11,3,3,2,3,3,17,17,9,9,1783.txt
0,0,0,0,0,20,19,0,22,0,0,16,30,27,16,0,9,27,16,27,23,4,6,6,3,7,6,7,3,28,0,24,3,3,0,25,23,0,13,6,3,12,6,6,11,20,3,2,20,18,27,30,13,13,1784.txt
0,0,0,0,0,20,19,0,22,0,0,16,30,27,16,0,9,27,16,24,23,4,6,6,3,7,6,7,3,28,0,24,3,3,0,25,23,0,13,6,3,12,7,6,11,3,6,6,3,3,6,7,7,7,1787.txt
0,0,0,0,0,20,19,0,22,0,0,16,30,27,16,0,9,27,16,24,23,4,6,6,3,7,6,7,3,28,0,24,3,3,0,25,23,0,13,6,3,4,6,6,30,3,3,2,3,3,27,30,22,20,1789.txt
0,0,0,0,0,20,19,0,22,0,0,16,30,27,16,27,9,23,16,24,23,4,20,6,3,7,6,7,3,28,0,24,3,3,0,25,23,0,13,6,3,12,6,6,11,3,3,2,3,3,10,9,16,16,1791.txt
0,16,0,6,0,3,19,2,22,26,16,25,12,12,16,0,9,27,16,24,23,4,6,6,3,7,6,7,3,28,16,22,3,3,16,12,13,11,15,26,3,12,6,6,11,0,3,2,0,0,6,5,5,5,1794.txt
0,0,0,0,0,20,19,0,22,0,0,16,30,27,16,0,9,27,16,24,23,4,6,20,3,7,6,7,3,28,0,0,13,3,0,25,23,0,13,6,0,12,3,13,11,11,25,20,24,24,6,7,21,21,1798.txt
0,16,2,6,7,3,20,2,22,27,14,12,12,12,2,0,9,27,8,24,19,17,6,2,3,7,6,7,2,28,13,5,12,3,4,12,13,11,10,26,26,25,13,8,8,20,8,7,26,23,21,24,9,9,1800.txt
0,0,0,0,0,26,20,0,23,0,0,0,0,28,16,0,9,27,18,24,0,0,27,25,0,9,9,11,28,10,19,26,13,0,2,13,14,13,15,23,0,0,3,9,0,0,25,27,0,0,17,17,0,0,1801.txt
0,0,0,0,0,20,19,0,22,0,0,16,30,27,16,0,9,27,16,24,23,4,6,6,3,7,6,7,3,28,0,24,3,3,0,25,23,0,13,6,3,12,6,6,11,5,3,2,5,5,19,20,28,16,1803.txt
0,16,2,6,7,3,0,26,22,26,16,25,13,13,24,0,9,27,18,24,0,0,27,19,0,9,9,11,28,10,2,2,0,0,2,13,14,8,15,30,27,16,21,23,18,5,0,0,5,5,17,5,5,5,1805.txt
0,0,0,0,0,20,19,0,22,0,0,16,30,27,16,0,9,27,16,24,23,4,6,19,3,7,6,7,3,28,5,5,13,7,4,12,13,11,10,26,0,3,3,13,3,30,0,0,20,18,14,9,19,16,1808.txt
0,0,0,0,0,20,19,0,22,0,0,16,30,27,17,0,9,28,16,27,23,20,6,17,3,7,6,7,3,6,0,24,3,3,0,0,17,0,4,4,3,10,6,6,6,5,2,22,5,5,5,13,0,0,1810.txt
0,0,0,0,0,20,19,0,22,0,0,16,30,27,16,0,9,27,16,24,23,4,6,6,3,7,6,7,3,28,0,24,3,3,0,25,23,0,13,6,3,12,6,6,11,5,3,2,5,5,7,8,22,20,1812.txt
0,0,0,0,0,26,20,0,23,0,0,0,0,28,16,0,9,27,1,24,5,27,27,24,23,9,9,11,28,10,2,2,16,7,2,11,12,8,15,23,7,15,14,12,17,6,1,29,29,27,12,9,17,30,1814.txt
0,0,0,0,0,20,19,0,22,0,0,16,30,27,16,0,9,27,16,24,10,6,6,19,12,7,6,7,3,28,0,24,13,7,0,25,23,0,13,6,0,3,21,23,3,3,0,0,3,3,10,9,16,16,1816.txt
1,13,26,17,11,9,14,1,18,1,19,8,17,7,21,18,6,6,3,20,4,27,4,28,17,10,29,14,11,24,6,6,4,4,7,18,27,5,9,16,11,18,4,5,24,20,19,17,20,18,25,30,27,23,1818.txt
0,0,0,0,0,20,19,0,22,0,0,16,30,27,16,0,9,27,16,24,23,4,6,20,3,7,6,7,3,28,0,24,13,7,0,25,23,0,13,6,0,12,3,13,11,3,25,20,3,3,22,5,5,5,1820.txt
0,0,0,0,0,20,19,0,22,0,0,16,30,27,16,0,9,27,16,24,23,4,6,6,3,7,6,7,3,28,0,24,3,3,0,25,23,0,13,6,3,12,6,6,11,3,3,6,3,3,6,7,24,24,1824.txt
0,0,0,0,0,20,19,0,22,0,0,16,30,27,16,0,9,27,16,24,23,4,6,6,3,7,6,7,3,28,0,24,3,3,0,25,23,0,13,6,3,12,6,6,11,3,3,2,3,3,17,17,0,0,1825.txt
0,0,0,0,0,20,19,0,22,0,0,16,30,27,16,0,9,27,16,27,23,4,6,6,3,7,6,7,3,28,5,5,3,3,4,13,14,8,10,30,3,12,6,6,11,5,3,2,5,5,5,6,22,20,1827.txt
1,29,23,8,28,5,15,1,18,5,19,8,17,7,21,18,6,6,19,28,19,19,19,2,8,20,29,14,18,24,6,6,2,28,22,9,30,5,9,18,15,13,13,8,15,23,25,19,26,23,25,24,9,9,1830.txt
0,0,0,0,0,20,19,0,22,0,0,16,30,27,16,0,9,27,12,24,5,27,6,12,18,7,6,7,3,28,16,22,16,3,16,12,13,9,15,24,7,12,14,12,11,21,12,13,20,18,28,26,24,24,1831.txt
0,0,0,0,0,20,19,0,22,0,0,16,30,27,16,0,9,27,10,24,23,4,6,6,3,7,6,7,3,28,0,24,3,3,0,25,23,0,13,6,3,12,6,6,11,0,3,2,0,0,10,9,16,16,1833.txt
0,16,2,6,7,3,10,2,2,27,14,12,29,11,2,6,2,2,16,2,23,4,16,6,10,2,30,2,3,2,2,2,21,18,18,11,12,8,15,30,2,30,17,14,15,14,3,2,10,9,17,17,22,20,1836.txt
0,0,0,0,0,26,19,0,23,0,0,0,0,28,16,0,9,27,16,24,10,6,27,19,12,9,9,11,3,10,0,24,16,7,0,25,23,0,13,6,5,12,21,23,11,0,0,0,0,0,6,7,0,0,1838.txt
27,15,1,1,25,1,1,12,30,20,6,30,4,3,3,4,27,29,28,20,5,27,17,15,20,5,4,28,30,8,7,21,1,13,15,1,25,30,30,15,21,6,27,29,20,29,26,15,13,15,25,5,5,5,1840.txt
0,0,0,0,0,20,19,0,22,0,0,16,30,27,16,0,9,27,30,24,5,8,6,15,19,7,6,7,3,28,17,7,3,3,16,12,13,9,15,24,3,12,6,6,11,10,3,6,13,13,22,26,24,24,1842.txt
0,0,0,0,0,26,19,0,23,0,0,0,0,28,16,0,9,27,16,24,10,6,27,19,12,9,9,11,3,10,0,24,13,7,0,25,23,0,13,6,0,12,3,13,11,0,0,0,0,0,10,9,16,16,1844.txt
0,0,0,0,0,26,20,0,23,0,0,0,0,28,16,0,9,27,18,24,10,6,27,19,12,9,9,11,0,10,0,24,16,7,0,25,23,0,13,6,8,15,16,13,17,3,28,28,3,3,10,9,16,28,1847.txt
0,0,0,0,0,20,19,0,22,0,0,16,30,27,16,0,9,27,16,24,23,4,6,6,3,7,6,7,3,28,0,24,3,3,0,25,23,0,13,6,3,12,6,6,11,3,6,2,3,3,6,7,7,7,1850.txt
0,0,0,0,0,20,19,0,22,0,0,16,30,27,16,0,9,27,16,24,23,4,6,6,3,7,6,7,3,28,0,24,3,3,0,25,0,0,0,0,3,12,6,6,11,3,3,2,3,3,10,9,16,16,1851.txt
0,13,26,1,4,1,14,28,5,1,4,5,5,3,3,11,11,15,16,20,23,4,7,6,3,17,8,16,23,9,1,30,3,3,22,1,25,25,21,15,3,12,6,6,11,17,3,2,13,15,25,26,7,7,1854.txt
0,0,0,0,0,20,4,0,17,0,0,16,30,27,16,14,15,18,19,15,2,2,2,2,10,2,2,2,2,2,21,24,15,8,26,22,23,6,13,6,2,13,17,14,19,14,3,2,10,9,1,1,1,16,1855.txt
0,0,0,0,0,20,19,0,22,0,0,16,30,27,16,0,9,27,16,24,23,4,6,6,3,7,6,7,3,28,0,24,3,3,0,25,23,0,13,6,3,12,6,6,11,3,3,2,3,3,10,9,16,16,1858.txt
0,0,0,0,0,20,19,0,22,0,0,16,30,27,16,0,9,27,16,24,23,4,6,6,3,7,6,7,3,28,0,24,3,3,0,25,23,0,13,6,3,12,6,6,11,3,3,2,3,3,6,7,7,7,1860.txt
0,0,0,0,0,26,4,0,2,0,0,20,0,0,19,13,2,2,16,2,12,0,13,20,2,4,26,4,3,4,19,2,2,21,2,11,12,13,15,23,2,29,13,9,1,14,11,27,10,9,22,13,13,13,1861.txt
0,0,0,0,1,29,19,10,5,0,4,5,5,3,3,23,23,26,16,9,12,7,18,21,13,8,8,16,24,14,20,9,0,11,6,1,5,27,23,12,0,4,3,12,4,7,25,27,7,10,27,5,5,5,1863.txt
0,0,0,0,0,20,19,0,22,0,0,16,30,27,16,0,9,27,16,24,23,4,6,6,3,7,6,7,3,28,22,24,3,3,27,23,23,7,13,6,3,12,5,4,11,3,4,4,3,3,17,17,0,0,1865.txt
0,0,0,0,0,20,19,0,22,0,0,16,30,27,16,0,9,27,16,24,23,4,6,19,3,7,6,7,3,28,0,24,16,3,0,25,0,0,0,0,5,12,21,23,11,3,0,0,3,3,6,7,0,0,1867.txt
29,15,1,1,25,1,3,3,5,20,27,30,21,3,3,10,10,29,1,3,5,27,19,24,23,11,20,29,8,8,7,20,6,27,29,1,5,19,17,15,24,12,24,28,11,20,1,26,20,18,10,9,16,29,1870.txt
0,0,0,0,0,20,19,0,22,0,0,16,30,27,16,0,9,27,16,24,23,4,6,6,3,7,6,7,3,28,0,24,3,3,0,25,23,0,13,6,3,12,6,6,11,3,3,2,3,3,19,20,28,18,1872.txt
27,13,26,9,12,5,8,8,5,1,29,24,18,19,5,18,6,6,11,5,23,4,4,6,29,20,13,20,11,9,6,6,4,4,22,6,5,5,9,14,18,5,4,5,30,5,3,2,5,5,15,16,25,2,1874.txt
0,0,0,0,0,26,19,0,23,0,0,0,0,28,16,0,9,27,16,24,10,6,27,19,12,23,24,19,3,19,0,24,13,7,0,25,23,0,13,6,0,12,3,12,11,3,28,12,3,3,10,9,16,16,1876.txt
0,16,2,6,7,30,10,2,7,27,14,12,12,12,2,6,7,7,8,10,27,25,5,27,24,24,30,17,21,27,17,22,21,18,16,12,13,9,15,24,30,25,19,14,8,12,4,24,8,7,6,7,7,7,1879.txt
0,0,0,0,0,20,19,0,22,0,0,16,30,27,16,0,9,27,16,24,23,4,6,6,3,7,6,7,3,28,0,24,3,3,0,25,23,0,13,6,3,12,6,6,11,5,3,2,5,5,6,7,22,20,1880.txt
0,0,0,0,0,20,19,0,22,0,0,16,30,27,17,0,9,27,16,7,12,6,0,20,0,0,0,0,3,0,0,24,0,0,0,25,23,0,13,6,0,12,3,9,11,0,25,20,0,0,17,17,21,21,1884.txt
0,0,0,0,0,20,4,0,7,0,0,16,30,27,16,6,7,7,16,10,23,4,5,6,24,2,30,2,3,2,5,5,23,20,4,12,13,9,10,24,30,12,19,14,11,12,4,24,8,7,6,7,7,7,1885.txt
0,0,0,0,0,20,19,0,22,0,0,16,30,27,16,0,9,27,12,24,1,27,6,24,23,7,6,7,3,28,0,24,16,7,0,25,0,0,0,0,7,3,15,13,3,20,28,12,20,18,10,9,16,16,1887.txt
0,0,0,0,0,20,19,0,22,0,0,16,30,27,16,0,9,27,16,24,23,4,6,6,3,7,6,7,3,28,0,24,3,3,0,25,23,0,13,6,3,12,6,6,11,3,3,2,3,3,10,9,16,16,1890.txt
0,0,0,0,0,26,19,0,23,0,0,0,0,28,16,0,9,27,16,24,10,6,27,19,12,9,9,11,3,10,18,25,13,7,18,11,12,8,15,28,0,12,3,12,11,0,11,13,0,0,12,11,17,30,1892.txt
0,15,1,1,1,5,14,1,18,3,1,8,1,7,1,26,22,29,12,20,30,26,19,12,18,18,29,14,10,5,7,8,13,11,29,1,9,30,30,16,0,12,3,12,11,24,12,13,6,27,13,24,13,13,1894.txt
0,16,2,6,7,3,19,2,22,26,14,12,12,12,2,0,9,27,16,24,23,4,6,6,3,7,6,7,3,28,16,7,3,3,16,12,13,11,15,26,3,12,6,6,11,3,3,2,3,3,6,7,9,9,1898.txt
1,13,26,9,11,8,1,1,18,5,19,8,17,7,21,1,1,1,11,29,23,20,12,17,30,19,25,13,18,16,9,28,20,24,12,6,27,25,27,18,11,6,11,17,10,18,6,16,16,16,25,26,11,11,1900.txt
0,0,0,0,0,20,19,0,22,0,0,16,30,27,16,0,9,27,16,7,23,4,6,19,3,7,6,7,3,28,2,2,3,3,2,11,12,8,15,23,3,12,3,9,11,0,11,27,0,0,17,17,0,0,1901.txt
0,0,0,0,0,20,19,0,22,0,0,16,30,27,16,0,9,27,16,24,23,4,6,6,3,7,6,7,3,28,0,24,3,3,0,25,23,0,13,6,3,12,6,6,11,1,3,2,13,15,10,9,16,17,1903.txt
0,0,0,0,0,20,19,0,22,0,0,16,30,27,16,0,9,27,16,24,23,4,6,6,3,7,6,7,3,28,0,24,3,3,0,25,23,0,13,6,3,12,6,6,11,3,6,2,3,3,6,7,24,24,1906.txt
0,0,0,0,0,20,4,0,17,0,0,16,30,27,16,13,15,18,19,15,2,17,13,27,9,4,26,4,6,4,18,25,2,21,18,29,15,13,15,23,15,1,13,12,1,13,8,7,9,8,30,24,10,10,1908.txt
0,0,0,0,0,20,19,0,22,0,0,16,30,27,16,0,9,27,16,24,23,4,6,6,3,7,6,7,3,28,0,24,3,3,0,25,23,0,13,6,3,12,6,6,11,5,3,2,5,5,17,17,22,20,1911.txt
1,30,27,25,11,8,1,28,18,6,19,8,17,7,21,30,26,15,3,1,4,24,7,16,15,20,29,14,20,24,10,14,19,13,7,19,25,29,24,9,11,14,11,19,12,28,24,15,16,25,8,5,5,5,1913.txt
0,0,0,0,0,20,19,0,22,0,0,16,30,27,16,0,9,27,16,24,23,4,6,6,3,7,6,7,3,28,0,24,3,3,0,25,23,0,13,6,3,12,6,6,11,3,3,6,3,3,10,9,16,16,1914.txt
27,15,19,25,25,5,14,12,26,14,20,7,28,25,26,18,5,5,3,1,30,26,8,15,19,10,17,27,4,30,6,6,4,4,10,4,20,14,12,8,10,17,4,5,2,27,16,17,13,30,24,24,27,23,1916.txt
27,13,26,9,4,5,1,1,5,1,4,5,5,3,3,11,11,4,26,16,3,3,9,12,1,8,8,16,7,14,1,16,5,9,12,1,9,20,29,16,20,9,8,16,4,24,2,22,6,6,13,28,9,9,1919.txt
27,15,1,1,25,1,14,12,5,20,27,4,22,3,3,23,23,26,16,9,23,4,3,21,3,10,7,28,10,8,7,8,13,9,29,1,5,30,30,9,0,23,3,12,27,7,12,27,7,10,27,24,13,13,1921.txt
0,0,0,0,0,20,19,0,22,0,0,16,30,27,16,0,9,27,16,24,23,4,6,6,3,7,6,7,3,28,0,24,3,3,0,25,23,0,13,6,3,12,6,6,11,3,3,2,3,3,27,26,7,7,1923.txt
0,0,0,0,0,20,19,0,22,0,0,16,30,27,16,0,9,27,16,24,23,4,6,6,3,7,6,7,3,28,5,5,3,3,4,12,13,11,10,28,3,12,6,6,11,3,3,2,3,3,6,7,9,9,1926.txt
0,0,0,0,0,20,19,0,22,0,0,16,30,27,16,0,9,27,16,24,23,4,6,6,3,7,6,7,3,28,0,24,3,3,0,25,23,0,13,6,3,12,6,6,11,3,3,6,3,3,6,7,24,24,1928.txt
0,0,0,0,0,20,19,0,22,0,0,16,30,27,16,0,9,27,16,24,10,6,6,19,12,7,6,7,3,28,16,22,13,7,17,12,13,9,15,24,0,12,21,23,11,3,0,0,3,3,6,7,7,7,1930.txt
0,0,0,0,0,20,19,0,22,0,0,16,30,27,16,0,9,27,16,24,23,4,6,6,3,7,6,7,3,28,18,7,3,3,18,11,12,13,15,28,3,12,6,6,11,5,3,2,5,5,30,19,24,24,1932.txt
0,0,0,0,0,20,19,0,22,0,0,16,30,27,16,0,9,27,16,24,23,4,6,6,3,7,6,7,3,28,22,24,3,3,27,23,23,7,13,6,3,1,18,15,8,5,2,24,5,5,6,7,13,13,1934.txt
0,0,0,0,0,20,19,0,22,0,0,16,30,27,16,0,9,27,16,24,23,4,6,6,3,7,6,7,3,28,0,24,3,3,0,25,23,0,13,6,3,12,6,6,11,3,3,2,3,3,6,7,9,9,1937.txt
0,0,0,0,0,20,19,0,22,0,0,16,30,27,16,0,9,27,16,24,23,4,6,6,3,7,6,7,3,28,0,24,3,3,0,25,23,0,13,6,3,12,6,6,11,0,3,2,0,0,6,7,0,0,1938.txt
0,0,0,0,0,20,19,0,22,0,0,16,30,27,16,0,9,27,16,24,23,4,6,6,3,7,6,7,3,28,0,24,3,3,0,25,23,0,13,6,3,12,6,6,11,3,29,6,3,3,6,7,8,8,1941.txt
0,0,0,0,0,26,19,0,23,0,0,0,0,28,16,0,9,27,16,24,12,6,27,19,13,9,9,11,3,10,18,7,13,11,18,14,15,13,15,28,0,12,3,12,11,3,12,27,3,3,12,9,17,30,1942.txt
0,0,0,0,0,26,19,0,23,0,0,0,0,28,16,0,9,27,16,24,12,14,27,19,14,9,9,11,3,10,0,24,12,11,0,25,23,0,13,6,7,12,14,12,11,0,11,13,0,0,10,9,16,16,1944.txt
0,0,0,0,0,20,4,0,7,0,0,16,30,27,16,17,7,7,16,10,23,4,5,6,24,2,28,2,3,2,5,5,21,18,4,12,13,9,10,24,14,12,7,6,11,12,6,6,8,7,28,19,7,7,1947.txt
0,0,0,0,0,20,19,0,22,0,0,16,30,27,16,0,9,27,16,24,23,4,6,6,3,7,6,7,3,28,0,24,3,3,0,25,23,0,13,6,3,12,6,6,11,3,3,2,3,3,7,8,9,9,1948.txt
0,0,0,0,0,20,20,0,22,0,0,16,30,27,16,0,9,27,12,24,5,27,6,13,18,7,6,7,28,28,16,22,13,7,16,12,13,11,15,26,0,15,3,12,17,23,11,27,20,18,6,5,5,5,1951.txt
0,0,0,0,0,20,19,0,22,0,0,16,30,27,16,0,9,27,16,24,23,4,6,6,3,7,6,7,3,28,0,24,3,3,0,25,23,0,13,6,3,12,6,6,11,3,3,6,3,3,6,5,5,5,1952.txt
0,0,0,0,0,26,19,0,23,0,0,0,0,28,16,0,9,27,16,24,10,6,27,19,12,23,24,19,3,19,16,22,10,7,16,12,13,9,15,24,5,12,21,23,11,3,0,0,3,3,6,7,8,8,1954.txt
0,16,0,6,0,3,10,26,14,27,15,26,12,12,16,6,12,20,8,11,27,25,5,26,24,4,30,4,6,4,22,24,21,18,27,23,23,7,13,6,30,1,5,15,14,13,3,2,9,8,28,29,7,7,1956.txt
0,0,0,0,0,20,19,0,22,0,0,16,30,27,16,0,9,27,16,24,23,4,6,6,3,7,6,7,3,28,0,24,3,3,0,25,23,0,13,6,3,12,6,6,11,3,3,2,3,3,6,7,7,7,1959.txt
27,15,19,29,25,5,15,12,27,6,20,11,20,21,26,18,6,6,3,1,30,26,19,11,20,11,17,27,11,8,6,6,4,4,10,19,27,5,9,13,21,14,4,5,23,28,19,30,16,15,25,5,5,5,1961.txt
0,16,0,6,0,3,19,2,22,26,14,12,12,12,16,0,9,27,16,24,23,4,6,6,3,7,6,7,3,28,0,24,3,3,0,25,23,0,13,6,3,12,6,6,11,3,3,2,3,3,6,7,7,7,1964.txt
27,13,26,9,4,1,1,1,5,1,4,5,5,3,3,23,23,26,16,9,23,4,4,6,3,18,8,16,18,15,1,30,3,13,12,1,25,25,22,18,3,6,6,6,10,3,30,6,3,3,27,26,24,24,1965.txt
0,0,0,0,0,20,19,0,22,0,0,16,30,27,16,0,9,27,16,24,12,0,27,20,14,9,9,11,3,10,19,26,13,11,18,29,15,13,2,28,0,12,3,12,11,0,8,7,0,0,17,17,22,20,1970.txt
0,13,26,1,4,1,14,10,5,1,4,5,5,3,3,23,23,26,16,9,23,4,1,6,3,17,8,16,10,9,1,14,3,3,29,1,5,3,3,16,3,23,6,6,27,5,3,2,5,5,27,30,22,20,1973.txt
0,16,2,6,7,3,19,2,22,26,14,12,12,12,2,0,9,27,16,24,23,4,6,6,3,7,6,7,3,28,16,22,3,3,16,12,13,11,15,26,3,12,19,14,11,3,4,6,3,3,30,28,7,7,1974.txt
0,0,0,0,0,20,19,0,22,0,0,16,30,27,16,0,9,27,16,24,23,4,6,6,3,7,6,7,3,28,0,24,3,3,0,25,23,0,13,6,3,12,6,6,11,3,3,2,3,3,10,9,16,16,1976.txt
0,0,0,0,0,20,19,0,22,0,0,16,30,27,16,0,9,27,16,24,8,4,6,6,3,7,6,7,3,28,0,24,3,3,0,25,23,0,13,6,3,12,7,7,11,5,2,22,5,5,10,9,16,16,1979.txt
0,0,0,0,0,20,19,0,22,0,0,16,30,27,16,0,9,27,16,24,23,4,6,6,3,7,6,7,3,28,0,24,3,3,0,25,23,0,13,6,3,12,6,6,11,5,3,2,5,5,10,9,16,16,1981.txt
0,16,2,6,7,3,20,2,23,26,15,25,12,12,2,0,0,27,18,0,10,6,11,19,12,9,9,11,27,10,13,5,13,7,4,11,12,9,10,24,27,16,21,23,18,3,0,0,3,3,6,7,21,21,1983.txt
